# sky background 0.3-1.0um
# DARKEST optical sky - 20%ile conditions (day 3)
# AM=1.5
#
#derived from sky spectrum with constant slope to match assumed photometric background
#increasingly poor model at very bright sky (day14);  patched to near-IR background at 920nm
#
#1 March 2001 : Phil Puxley

#nm         phot/s/nm/arcsec^2/m^2
320.00                    0.0000
349.99                    0.0000
350.17                    0.3353
350.43                    0.3352
350.70                    0.3350
350.96                    0.3349
351.23                    0.3348
351.49                    0.3346
351.76                    0.3345
352.02                    0.3344
352.29                    0.3342
352.55                    0.3341
352.82                    0.3340
353.08                    0.3338
353.35                    0.3337
353.62                    0.3336
353.88                    0.3334
354.15                    0.3333
354.41                    0.3332
354.68                    0.3330
354.94                    0.3329
355.21                    0.3328
355.47                    0.3326
355.74                    0.3325
356.00                    0.3324
356.27                    0.3322
356.53                    0.3321
356.80                    0.3320
357.07                    0.3318
357.33                    0.3317
357.60                    0.3316
357.86                    0.3314
358.13                    0.3313
358.39                    0.3312
358.66                    0.3310
358.92                    0.3309
359.19                    0.3308
359.45                    0.3306
359.72                    0.3305
359.98                    0.3304
360.25                    0.3302
360.51                    0.3301
360.78                    0.3300
361.05                    0.3298
361.31                    0.3297
361.58                    0.3296
361.84                    0.3294
362.11                    0.3293
362.37                    0.3292
362.64                    0.3291
362.90                    0.3289
363.17                    0.3288
363.43                    0.3287
363.70                    0.3285
363.96                    0.3284
364.23                    0.3283
364.49                    0.3281
364.76                    0.3280
365.03                    0.3279
365.29                    0.3277
365.56                    0.3276
365.82                    0.3275
366.09                    0.3273
366.35                    0.3272
366.62                    0.3271
366.88                    0.3269
367.15                    0.3268
367.41                    0.3267
367.68                    0.3265
367.94                    0.3264
368.21                    0.3263
368.47                    0.3261
368.74                    0.3260
369.01                    0.3259
369.27                    0.3257
369.54                    0.3256
369.80                    0.3255
370.07                    0.3253
370.33                    0.3252
370.60                    0.3251
370.86                    0.3249
371.13                    0.3248
371.39                    0.3247
371.66                    0.3245
371.92                    0.3244
372.19                    0.3243
372.45                    0.3241
372.72                    0.3240
372.99                    0.3239
373.25                    0.3237
373.52                    0.3236
373.78                    0.3235
374.05                    0.3233
374.31                    0.3232
374.58                    0.3231
374.84                    0.3229
375.11                    0.3228
375.37                    0.3227
375.64                    0.3225
375.90                    0.3224
376.17                    0.3223
376.43                    0.3221
376.70                    0.3220
376.97                    0.3219
377.23                    0.3217
377.50                    0.3216
377.76                    0.3215
378.03                    0.3213
378.29                    0.3212
378.56                    0.3211
378.82                    0.3209
379.09                    0.3208
379.35                    0.3207
379.62                    0.3205
379.88                    0.3204
380.15                    0.3203
380.41                    0.3201
380.68                    0.3200
380.95                    0.3199
381.21                    0.3198
381.48                    0.3196
381.74                    0.3195
382.01                    0.3194
382.27                    0.3192
382.54                    0.3191
382.80                    0.3190
383.07                    0.3188
383.33                    0.3187
383.60                    0.3186
383.86                    0.3184
384.13                    0.3183
384.40                    0.3182
384.66                    0.3180
384.93                    0.3179
385.19                    0.3178
385.46                    0.3176
385.72                    0.3175
385.99                    0.3174
386.25                    0.3173
386.52                    0.3171
386.78                    0.3170
387.05                    0.3169
387.31                    0.3168
387.58                    0.3167
387.84                    0.3165
388.11                    0.3164
388.38                    0.3163
388.64                    0.3162
388.91                    0.3161
389.17                    0.3160
389.44                    0.3159
389.70                    0.3158
389.97                    0.3157
390.23                    0.3156
390.50                    0.3155
390.76                    0.3154
391.03                    0.3153
391.29                    0.3152
391.56                    0.3151
391.82                    0.3150
392.09                    0.3149
392.36                    0.3149
392.62                    0.3148
392.89                    0.3147
393.15                    0.3146
393.42                    0.3145
393.68                    0.3144
393.95                    0.3143
394.21                    0.3142
394.48                    0.3141
394.74                    0.3140
395.01                    0.3140
395.27                    0.3139
395.54                    0.3138
395.80                    0.3137
396.07                    0.3136
396.34                    0.3135
396.60                    0.3134
396.87                    0.3133
397.13                    0.3132
397.40                    0.3131
397.66                    0.3130
397.93                    0.3129
398.19                    0.3128
398.46                    0.3127
398.72                    0.3127
398.99                    0.3126
399.25                    0.3125
399.52                    0.3124
399.78                    0.3122
400.05                    0.3121
400.32                    0.3121
400.58                    0.3120
400.85                    0.3119
401.11                    0.3118
401.38                    0.3117
401.64                    0.3115
401.91                    0.3114
402.17                    0.3113
402.44                    0.3112
402.70                    0.3111
402.97                    0.3110
403.23                    0.3109
403.50                    0.3108
403.76                    0.3107
404.03                    0.3106
404.30                    0.3105
404.56                    0.3104
404.83                    0.3103
405.09                    0.3103
405.36                    0.3102
405.62                    0.3101
405.89                    0.3100
406.15                    0.3099
406.42                    0.3098
406.68                    0.3097
406.95                    0.3096
407.21                    0.3095
407.48                    0.3094
407.74                    0.3094
408.01                    0.3093
408.28                    0.3092
408.54                    0.3091
408.81                    0.3090
409.07                    0.3089
409.34                    0.3089
409.60                    0.3088
409.87                    0.3087
410.13                    0.3087
410.40                    0.3086
410.66                    0.3086
410.93                    0.3085
411.19                    0.3085
411.46                    0.3084
411.73                    0.3083
411.99                    0.3083
412.26                    0.3082
412.52                    0.3082
412.79                    0.3081
413.05                    0.3081
413.32                    0.3080
413.58                    0.3080
413.85                    0.3079
414.11                    0.3079
414.38                    0.3078
414.64                    0.3077
414.91                    0.3077
415.17                    0.3076
415.44                    0.3076
415.71                    0.3075
415.97                    0.3074
416.24                    0.3074
416.50                    0.3073
416.77                    0.3072
417.03                    0.3072
417.30                    0.3071
417.56                    0.3070
417.83                    0.3070
418.09                    0.3069
418.36                    0.3068
418.62                    0.3067
418.89                    0.3067
419.15                    0.3066
419.42                    0.3065
419.69                    0.3064
419.95                    0.3063
420.22                    0.3062
420.48                    0.3062
420.75                    0.3060
421.01                    0.3059
421.28                    0.3058
421.54                    0.3057
421.81                    0.3056
422.07                    0.3055
422.34                    0.3055
422.60                    0.3054
422.87                    0.3053
423.13                    0.3052
423.40                    0.3051
423.67                    0.3050
423.93                    0.3049
424.20                    0.3048
424.46                    0.3047
424.73                    0.3046
424.99                    0.3045
425.26                    0.3044
425.52                    0.3043
425.79                    0.3042
426.05                    0.3041
426.32                    0.3040
426.58                    0.3039
426.85                    0.3038
427.11                    0.3037
427.38                    0.3036
427.65                    0.3035
427.91                    0.3034
428.18                    0.3033
428.44                    0.3033
428.71                    0.3032
428.97                    0.3031
429.24                    0.3030
429.50                    0.3029
429.77                    0.3028
430.03                    0.3027
430.30                    0.3027
430.56                    0.3026
430.83                    0.3025
431.09                    0.3024
431.36                    0.3023
431.63                    0.3023
431.89                    0.3022
432.16                    0.3021
432.42                    0.3020
432.69                    0.3020
432.95                    0.3019
433.22                    0.3018
433.48                    0.3018
433.75                    0.3017
434.01                    0.3016
434.28                    0.3015
434.54                    0.3015
434.81                    0.3014
435.07                    0.3013
435.34                    0.3013
435.61                    0.3012
435.87                    0.3011
436.14                    0.3011
436.40                    0.3010
436.67                    0.3009
436.93                    0.3009
437.20                    0.3008
437.46                    0.3008
437.73                    0.3007
437.99                    0.3006
438.26                    0.3006
438.52                    0.3005
438.79                    0.3005
439.05                    0.3004
439.32                    0.3004
439.59                    0.3003
439.85                    0.3003
440.12                    0.3003
440.38                    0.3002
440.65                    0.3002
440.91                    0.3002
441.18                    0.3002
441.44                    0.3001
441.71                    0.3001
441.97                    0.3001
442.24                    0.3001
442.50                    0.3000
442.77                    0.3000
443.04                    0.3000
443.30                    0.3000
443.57                    0.2999
443.83                    0.2999
444.10                    0.2999
444.36                    0.2999
444.63                    0.2998
444.89                    0.2998
445.16                    0.2998
445.42                    0.2997
445.69                    0.2997
445.95                    0.2997
446.22                    0.2996
446.48                    0.2996
446.75                    0.2996
447.02                    0.2995
447.28                    0.2995
447.55                    0.2994
447.81                    0.2994
448.08                    0.2994
448.34                    0.2993
448.61                    0.2993
448.87                    0.2992
449.14                    0.2992
449.40                    0.2991
449.67                    0.2991
449.93                    0.2990
450.20                    0.2990
450.46                    0.2989
450.73                    0.2988
451.00                    0.2988
451.26                    0.2987
451.53                    0.2986
451.79                    0.2986
452.06                    0.2985
452.32                    0.2984
452.59                    0.2983
452.85                    0.2983
453.12                    0.2982
453.38                    0.2981
453.65                    0.2981
453.91                    0.2980
454.18                    0.2979
454.44                    0.2979
454.71                    0.2978
454.98                    0.2977
455.24                    0.2977
455.51                    0.2976
455.77                    0.2975
456.04                    0.2975
456.30                    0.2974
456.57                    0.2973
456.83                    0.2973
457.10                    0.2972
457.36                    0.2971
457.63                    0.2971
457.89                    0.2970
458.16                    0.2970
458.42                    0.2969
458.69                    0.2968
458.96                    0.2968
459.22                    0.2967
459.49                    0.2967
459.75                    0.2966
460.02                    0.2965
460.28                    0.2965
460.55                    0.2964
460.81                    0.2964
461.08                    0.2963
461.34                    0.2963
461.61                    0.2963
461.87                    0.2962
462.14                    0.2962
462.40                    0.2961
462.67                    0.2961
462.94                    0.2960
463.20                    0.2960
463.47                    0.2959
463.73                    0.2959
464.00                    0.2959
464.26                    0.2958
464.53                    0.2958
464.79                    0.2957
465.06                    0.2957
465.32                    0.2956
465.59                    0.2956
465.85                    0.2956
466.12                    0.2955
466.38                    0.2955
466.65                    0.2955
466.92                    0.2954
467.18                    0.2954
467.45                    0.2954
467.71                    0.2954
467.98                    0.2953
468.24                    0.2953
468.51                    0.2953
468.77                    0.2953
469.04                    0.2953
469.30                    0.2952
469.57                    0.2952
469.83                    0.2952
470.10                    0.2952
470.37                    0.2952
470.63                    0.2952
470.90                    0.2953
471.16                    0.2953
471.43                    0.2953
471.69                    0.2953
471.96                    0.2953
472.22                    0.2953
472.49                    0.2953
472.75                    0.2953
473.02                    0.2954
473.28                    0.2954
473.55                    0.2954
473.81                    0.2954
474.08                    0.2954
474.35                    0.2954
474.61                    0.2954
474.88                    0.2954
475.14                    0.2954
475.41                    0.2954
475.67                    0.2954
475.94                    0.2954
476.20                    0.2954
476.47                    0.2954
476.73                    0.2954
477.00                    0.2953
477.26                    0.2953
477.53                    0.2953
477.79                    0.2953
478.06                    0.2953
478.33                    0.2953
478.59                    0.2952
478.86                    0.2952
479.12                    0.2952
479.39                    0.2951
479.65                    0.2951
479.92                    0.2950
480.18                    0.2950
480.45                    0.2949
480.71                    0.2948
480.98                    0.2948
481.24                    0.2947
481.51                    0.2946
481.77                    0.2945
482.04                    0.2945
482.31                    0.2944
482.57                    0.2943
482.84                    0.2942
483.10                    0.2942
483.37                    0.2941
483.63                    0.2940
483.90                    0.2939
484.16                    0.2939
484.43                    0.2938
484.69                    0.2937
484.96                    0.2936
485.22                    0.2936
485.49                    0.2935
485.75                    0.2934
486.02                    0.2934
486.29                    0.2933
486.55                    0.2932
486.82                    0.2932
487.08                    0.2931
487.35                    0.2930
487.61                    0.2930
487.88                    0.2929
488.14                    0.2928
488.41                    0.2928
488.67                    0.2927
488.94                    0.2926
489.20                    0.2926
489.47                    0.2925
489.73                    0.2925
490.00                    0.2924
490.27                    0.2924
490.53                    0.2923
490.80                    0.2923
491.06                    0.2923
491.33                    0.2922
491.59                    0.2922
491.86                    0.2921
492.12                    0.2921
492.39                    0.2921
492.65                    0.2920
492.92                    0.2920
493.18                    0.2919
493.45                    0.2919
493.71                    0.2919
493.98                    0.2918
494.25                    0.2918
494.51                    0.2917
494.78                    0.2917
495.04                    0.2917
495.31                    0.2916
495.57                    0.2916
495.84                    0.2915
496.10                    0.2915
496.37                    0.2915
496.63                    0.2914
496.90                    0.2914
497.16                    0.2914
497.43                    0.2913
497.70                    0.2913
497.96                    0.2912
498.23                    0.2912
498.49                    0.2912
498.76                    0.2911
499.02                    0.2911
499.29                    0.2911
499.55                    0.2910
499.82                    0.2910
500.08                    0.2910
500.35                    0.2909
500.61                    0.2909
500.88                    0.2909
501.14                    0.2909
501.41                    0.2909
501.68                    0.2908
501.94                    0.2908
502.21                    0.2908
502.47                    0.2908
502.74                    0.2907
503.00                    0.2907
503.27                    0.2907
503.53                    0.2907
503.80                    0.2906
504.06                    0.2906
504.33                    0.2906
504.59                    0.2906
504.86                    0.2906
505.12                    0.2905
505.39                    0.2905
505.66                    0.2905
505.92                    0.2905
506.19                    0.2904
506.45                    0.2904
506.72                    0.2904
506.98                    0.2904
507.25                    0.2903
507.51                    0.2903
507.78                    0.2903
508.04                    0.2903
508.31                    0.2903
508.57                    0.2902
508.84                    0.2902
509.10                    0.2902
509.37                    0.2902
509.64                    0.2901
509.90                    0.2902
510.17                    0.2902
510.43                    0.2902
510.70                    0.2901
510.96                    0.2907
511.23                    0.2877
511.49                    0.2916
511.76                    0.2937
512.02                    0.2930
512.29                    0.2823
512.55                    0.2697
512.82                    0.2700
513.08                    0.2821
513.35                    0.2893
513.62                    0.2857
513.88                    0.2783
514.15                    0.2803
514.41                    0.2814
514.68                    0.2837
514.94                    0.2796
515.21                    0.2775
515.47                    0.2719
515.74                    0.2693
516.00                    0.2710
516.27                    0.2640
516.53                    0.2582
516.80                    0.2539
517.06                    0.2679
517.33                    0.2741
517.60                    0.2833
517.86                    0.2708
518.13                    0.2765
518.39                    0.2776
518.66                    0.2945
518.92                    0.2888
519.19                    0.3000
519.45                    0.4074
519.72                    0.5355
519.98                    0.5725
520.25                    0.4736
520.51                    0.3495
520.78                    0.3008
521.04                    0.2840
521.31                    0.2817
521.58                    0.2837
521.84                    0.2906
522.11                    0.3029
522.37                    0.2897
522.64                    0.2771
522.90                    0.2679
523.17                    0.2752
523.43                    0.2814
523.70                    0.2866
523.96                    0.2886
524.23                    0.2857
524.49                    0.2802
524.76                    0.2751
525.03                    0.2835
525.29                    0.2877
525.56                    0.2928
525.82                    0.2798
526.09                    0.2644
526.35                    0.2547
526.62                    0.2550
526.88                    0.2653
527.15                    0.2825
527.41                    0.2970
527.68                    0.3010
527.94                    0.3062
528.21                    0.2932
528.47                    0.2801
528.74                    0.2646
529.01                    0.2708
529.27                    0.2800
529.54                    0.2877
529.80                    0.2896
530.07                    0.2900
530.33                    0.2852
530.60                    0.2844
530.86                    0.3006
531.13                    0.3032
531.39                    0.3019
531.66                    0.2837
531.92                    0.2801
532.19                    0.2772
532.45                    0.2858
532.72                    0.3023
532.99                    0.3230
533.25                    0.3142
533.52                    0.2965
533.78                    0.2776
534.05                    0.2781
534.31                    0.2838
534.58                    0.2871
534.84                    0.2833
535.11                    0.2764
535.37                    0.2754
535.64                    0.2830
535.90                    0.2883
536.17                    0.2869
536.43                    0.2817
536.70                    0.2798
536.97                    0.2777
537.23                    0.2860
537.50                    0.2827
537.76                    0.2769
538.03                    0.2627
538.29                    0.2604
538.56                    0.2635
538.82                    0.2760
539.09                    0.2729
539.35                    0.2719
539.62                    0.2651
539.88                    0.2687
540.15                    0.2715
540.41                    0.2699
540.68                    0.2787
540.95                    0.2736
541.21                    0.2824
541.48                    0.2718
541.74                    0.2786
542.01                    0.2660
542.27                    0.2638
542.54                    0.2620
542.80                    0.2675
543.07                    0.2786
543.33                    0.2874
543.60                    0.2871
543.86                    0.2885
544.13                    0.2728
544.39                    0.2781
544.66                    0.2736
544.93                    0.2864
545.19                    0.2853
545.46                    0.2837
545.72                    0.2813
545.99                    0.2855
546.25                    0.2916
546.52                    0.2948
546.78                    0.2884
547.05                    0.2727
547.31                    0.2593
547.58                    0.2603
547.84                    0.2691
548.11                    0.2693
548.37                    0.2754
548.64                    0.2811
548.91                    0.2990
549.17                    0.2953
549.44                    0.3028
549.70                    0.2991
549.97                    0.3026
550.23                    0.2969
550.50                    0.2978
550.76                    0.2975
551.03                    0.2953
551.29                    0.2917
551.56                    0.2904
551.82                    0.2890
552.09                    0.2824
552.36                    0.2713
552.62                    0.2671
552.89                    0.2712
553.15                    0.2907
553.42                    0.2949
553.68                    0.3046
553.95                    0.3089
554.21                    0.3301
554.48                    0.3346
554.74                    0.3286
555.01                    0.3164
555.27                    0.3095
555.54                    0.3033
555.80                    0.3075
556.07                    0.3208
556.34                    0.3320
556.60                    0.3330
556.87                    0.3455
557.13                    2.3086
557.40                    5.0461
557.66                    6.9432
557.93                    5.4380
558.19                    2.6991
558.46                    0.7783
558.72                    0.3256
558.99                    0.3196
559.25                    0.3149
559.52                    0.3040
559.78                    0.3040
560.05                    0.3211
560.32                    0.3313
560.58                    0.3368
560.85                    0.3136
561.11                    0.2875
561.38                    0.2876
561.64                    0.3076
561.91                    0.3406
562.17                    0.3520
562.44                    0.3483
562.70                    0.3229
562.97                    0.3001
563.23                    0.2845
563.50                    0.2912
563.76                    0.2997
564.03                    0.3047
564.30                    0.3139
564.56                    0.3257
564.83                    0.3238
565.09                    0.3069
565.36                    0.2872
565.62                    0.2867
565.89                    0.2936
566.15                    0.3037
566.42                    0.3168
566.68                    0.3262
566.95                    0.3206
567.21                    0.3139
567.48                    0.3091
567.74                    0.3176
568.01                    0.3068
568.28                    0.3011
568.54                    0.2859
568.81                    0.2973
569.07                    0.3119
569.34                    0.3278
569.60                    0.3399
569.87                    0.3284
570.13                    0.3274
570.40                    0.3099
570.66                    0.3138
570.93                    0.3033
571.19                    0.3056
571.46                    0.3092
571.72                    0.3265
571.99                    0.3352
572.26                    0.3385
572.52                    0.3253
572.79                    0.3236
573.05                    0.3190
573.32                    0.3205
573.58                    0.3163
573.85                    0.3108
574.11                    0.3176
574.38                    0.3210
574.64                    0.3240
574.91                    0.3107
575.17                    0.3056
575.44                    0.3000
575.70                    0.3109
575.97                    0.3020
576.24                    0.3038
576.50                    0.3035
576.77                    0.3148
577.03                    0.3168
577.30                    0.3126
577.56                    0.3080
577.83                    0.3081
578.09                    0.3052
578.36                    0.3055
578.62                    0.2960
578.89                    0.2946
579.15                    0.2967
579.42                    0.2990
579.68                    0.3066
579.95                    0.3097
580.22                    0.3248
580.48                    0.3258
580.75                    0.3187
581.01                    0.3072
581.28                    0.3083
581.54                    0.3150
581.81                    0.3324
582.07                    0.3437
582.34                    0.3472
582.60                    0.3326
582.87                    0.3314
583.13                    0.3307
583.40                    0.3307
583.67                    0.3292
583.93                    0.3439
584.20                    0.4299
584.46                    0.4218
584.73                    0.4108
584.99                    0.3269
585.26                    0.3345
585.52                    0.3242
585.79                    0.3316
586.05                    0.3678
586.32                    0.4491
586.58                    0.4934
586.85                    0.4850
587.11                    0.4278
587.38                    0.4069
587.65                    0.3904
587.91                    0.3892
588.18                    0.4022
588.44                    0.8799
588.71                    1.4032
588.97                    1.8246
589.24                    1.6425
589.50                    1.2973
589.77                    0.8889
590.03                    0.6070
590.30                    0.4461
590.56                    0.4263
590.83                    0.4378
591.09                    0.4709
591.36                    0.4936
591.63                    0.4867
591.89                    0.4600
592.16                    0.4364
592.42                    0.4267
592.69                    0.4427
592.95                    0.4839
593.22                    0.5256
593.48                    0.4850
593.75                    0.4176
594.01                    0.3701
594.28                    0.3896
594.54                    0.4058
594.81                    0.4416
595.07                    0.4718
595.34                    0.4742
595.61                    0.4337
595.87                    0.3795
596.14                    0.3612
596.40                    0.3610
596.67                    0.3866
596.93                    0.4117
597.20                    0.4362
597.46                    0.4557
597.73                    0.4485
597.99                    0.4192
598.26                    0.3785
598.52                    0.3687
598.79                    0.3820
599.05                    0.3781
599.32                    0.3689
599.59                    0.3642
599.85                    0.3714
600.12                    0.3877
600.38                    0.3792
600.65                    0.3709
600.91                    0.3482
601.18                    0.3373
601.44                    0.3259
601.71                    0.3197
601.97                    0.3134
602.24                    0.3113
602.50                    0.3213
602.77                    0.3331
603.03                    0.3377
603.30                    0.3320
603.57                    0.3244
603.83                    0.3207
604.10                    0.3199
604.36                    0.3196
604.63                    0.3135
604.89                    0.3023
605.16                    0.2903
605.42                    0.2830
605.69                    0.2841
605.95                    0.2905
606.22                    0.3013
606.48                    0.3061
606.75                    0.2977
607.01                    0.2953
607.28                    0.2881
607.55                    0.2970
607.81                    0.2871
608.08                    0.2903
608.34                    0.2841
608.61                    0.2851
608.87                    0.2857
609.14                    0.2858
609.40                    0.2955
609.67                    0.2983
609.93                    0.3001
610.20                    0.2957
610.46                    0.2986
610.73                    0.2968
611.00                    0.2947
611.26                    0.2819
611.53                    0.2808
611.79                    0.2693
612.06                    0.2662
612.32                    0.2695
612.59                    0.2743
612.85                    0.2764
613.12                    0.2663
613.38                    0.2933
613.65                    0.3195
613.91                    0.3453
614.18                    0.3308
614.44                    0.3214
614.71                    0.2986
614.98                    0.2937
615.24                    0.3166
615.51                    0.3578
615.77                    0.3616
616.04                    0.3212
616.30                    0.2969
616.57                    0.3184
616.83                    0.3506
617.10                    0.6525
617.36                    0.6423
617.63                    0.6206
617.89                    0.3009
618.16                    0.2808
618.42                    0.2677
618.69                    0.2647
618.96                    0.2622
619.22                    0.2693
619.49                    0.2707
619.75                    0.2969
620.02                    0.3241
620.28                    0.3367
620.55                    0.3147
620.81                    0.2933
621.08                    0.2922
621.34                    0.3012
621.61                    0.3259
621.87                    0.3537
622.14                    0.3531
622.40                    0.3195
622.67                    0.2967
622.94                    0.3553
623.20                    0.5135
623.47                    0.6414
623.73                    0.6708
624.00                    0.5692
624.26                    0.4670
624.53                    0.3731
624.79                    0.3264
625.06                    0.3356
625.32                    0.4345
625.59                    0.5484
625.85                    0.5824
626.12                    0.5286
626.38                    0.4564
626.65                    0.4130
626.92                    0.3823
627.18                    0.3579
627.45                    0.3534
627.71                    0.3596
627.98                    0.3727
628.24                    0.4195
628.51                    0.5008
628.77                    0.5319
629.04                    0.5261
629.30                    1.6510
629.57                    7.2606
629.83                   12.6501
630.10                   15.4465
630.36                    9.8863
630.63                    4.5300
630.90                    0.5105
631.16                    0.3969
631.43                    0.3164
631.69                    0.3555
631.96                    0.4168
632.22                    0.4265
632.49                    0.4841
632.75                    0.5162
633.02                    0.5682
633.28                    0.4693
633.55                    0.3622
633.81                    0.2835
634.08                    0.2784
634.34                    0.3172
634.61                    0.3398
634.88                    0.3680
635.14                    0.4065
635.41                    0.4767
635.67                    1.0400
635.94                    2.6422
636.20                    4.3328
636.47                    4.8904
636.73                    3.2277
637.00                    1.4357
637.26                    0.2962
637.53                    0.3068
637.79                    0.3252
638.06                    0.3394
638.33                    0.3545
638.59                    0.3563
638.86                    0.3342
639.12                    0.2948
639.39                    0.2702
639.65                    0.2593
639.92                    0.2668
640.18                    0.2640
640.45                    0.2738
640.71                    0.2672
640.98                    0.2709
641.24                    0.2678
641.51                    0.2786
641.77                    0.2944
642.04                    0.3062
642.31                    0.2985
642.57                    0.2785
642.84                    0.2656
643.10                    0.2619
643.37                    0.2539
643.63                    0.2405
643.90                    0.2354
644.16                    0.2396
644.43                    0.2506
644.69                    0.2614
644.96                    0.2783
645.22                    0.3069
645.49                    0.3168
645.75                    0.3237
646.02                    0.3829
646.29                    0.4723
646.55                    0.5524
646.82                    0.5414
647.08                    0.4656
647.35                    0.3916
647.61                    0.3250
647.88                    0.3126
648.14                    0.2944
648.41                    0.2927
648.67                    0.2752
648.94                    0.2653
649.20                    0.2661
649.47                    0.2717
649.73                    0.2802
650.00                    0.2842
650.27                    0.3112
650.53                    0.3047
650.80                    0.2933
651.06                    0.2645
651.33                    0.2709
651.59                    0.2665
651.86                    0.2618
652.12                    0.2655
652.39                    0.2738
652.65                    0.2764
652.92                    0.2765
653.18                    0.2752
653.45                    0.2819
653.71                    0.2863
653.98                    0.2952
654.25                    0.2975
654.51                    0.2863
654.78                    0.2906
655.04                    0.3473
655.31                    0.3568
655.57                    0.3569
655.84                    0.2999
656.10                    0.2913
656.37                    0.2741
656.63                    0.3411
656.90                    0.3512
657.16                    0.3584
657.43                    0.3209
657.69                    0.3109
657.96                    0.3108
658.23                    0.2775
658.49                    0.2839
658.76                    0.2785
659.02                    0.2759
659.29                    0.2756
659.55                    0.2760
659.82                    0.2766
660.08                    0.2782
660.35                    0.2787
660.61                    0.2810
660.88                    0.2751
661.14                    0.2884
661.41                    0.2872
661.67                    0.2891
661.94                    0.2769
662.21                    0.2791
662.47                    0.2982
662.74                    0.3182
663.00                    0.3174
663.27                    0.3016
663.53                    0.2917
663.80                    0.2920
664.06                    0.2885
664.33                    0.2800
664.59                    0.2820
664.86                    0.2829
665.12                    0.2861
665.39                    0.2898
665.66                    0.2928
665.92                    0.2908
666.19                    0.2867
666.45                    0.2912
666.72                    0.2915
666.98                    0.2920
667.25                    0.2856
667.51                    0.2862
667.78                    0.2886
668.04                    0.2891
668.31                    0.2896
668.57                    0.2882
668.84                    0.2887
669.10                    0.2892
669.37                    0.2899
669.64                    0.3001
669.90                    0.3032
670.17                    0.3035
670.43                    0.3090
670.70                    0.3269
670.96                    0.3553
671.23                    0.3510
671.49                    0.3465
671.76                    0.3344
672.02                    0.3280
672.29                    0.3248
672.55                    0.3139
672.82                    0.3114
673.08                    0.3006
673.35                    0.3281
673.62                    0.3286
673.88                    0.3291
674.15                    0.2999
674.41                    0.3018
674.68                    0.3033
674.94                    0.3039
675.21                    0.3032
675.47                    0.3056
675.74                    0.3050
676.00                    0.3087
676.27                    0.3082
676.53                    0.3084
676.80                    0.3176
677.06                    0.3340
677.33                    0.3347
677.60                    0.3248
677.86                    0.3073
678.13                    0.3077
678.39                    0.3063
678.66                    0.3070
678.92                    0.3281
679.19                    0.3288
679.45                    0.3332
679.72                    0.3323
679.98                    0.3326
680.25                    0.3290
680.51                    0.3102
680.78                    0.3107
681.04                    0.3112
681.31                    0.3117
681.58                    0.3122
681.84                    0.3127
682.11                    0.3132
682.37                    0.3137
682.64                    0.3335
682.90                    0.3391
683.17                    0.6797
683.43                    0.6612
683.70                    0.6568
683.96                    0.3314
684.23                    0.3319
684.49                    0.3324
684.76                    0.3182
685.02                    0.3187
685.29                    0.3192
685.56                    0.3197
685.82                    0.3201
686.09                    0.8228
686.35                    0.8237
686.62                    0.8247
686.88                    0.3327
687.15                    0.3332
687.41                    0.3337
687.68                    0.3235
687.94                    0.3419
688.21                    0.3425
688.47                    0.3440
688.74                    0.3264
689.00                    0.3300
689.27                    0.3295
689.54                    0.3329
689.80                    0.5891
690.07                    0.5901
690.33                    0.5934
690.60                    0.3340
690.86                    0.3345
691.13                    0.3297
691.39                    0.3302
691.66                    0.3429
691.92                    0.3434
692.19                    0.3439
692.45                    0.3320
692.72                    0.3325
692.99                    0.3329
693.25                    0.3418
693.52                    0.3514
693.78                    0.3652
694.05                    0.3588
694.31                    0.3516
694.58                    0.3386
694.84                    0.3516
695.11                    0.3571
695.37                    0.3768
695.64                    0.3923
695.90                    0.4025
696.17                    0.3885
696.43                    0.3629
696.70                    0.4103
696.97                    0.4159
697.23                    0.4243
697.50                    0.3657
697.76                    0.3570
698.03                    0.3465
698.29                    0.3426
698.56                    0.3500
698.82                    0.3528
699.09                    0.3533
699.35                    0.3538
699.62                    0.3561
699.88                    0.3692
700.15                    0.3651
700.41                    0.3613
700.68                    0.3490
700.95                    0.3460
701.21                    0.3463
701.48                    0.3467
701.74                    0.3471
702.01                    0.3475
702.27                    0.3479
702.54                    0.3487
702.80                    0.3523
703.07                    0.3542
703.33                    0.3542
703.60                    0.3556
703.86                    0.3969
704.13                    0.4123
704.39                    0.4087
704.66                    0.3681
704.93                    0.3654
705.19                    0.3655
705.46                    0.3645
705.72                    0.3655
705.99                    0.3785
706.25                    0.3789
706.52                    0.3698
706.78                    0.3820
707.05                    0.4025
707.31                    0.3998
707.58                    0.3855
707.84                    0.3746
708.11                    0.3750
708.37                    0.3657
708.64                    0.3575
708.91                    0.3582
709.17                    0.3586
709.44                    0.3654
709.70                    0.3671
709.97                    0.3675
710.23                    0.3611
710.50                    0.3888
710.76                    0.3996
711.03                    0.4003
711.29                    0.3717
711.56                    0.3616
711.82                    0.3619
712.09                    0.3623
712.35                    0.3627
712.62                    0.3631
712.89                    0.3692
713.15                    0.3696
713.42                    0.3700
713.68                    0.3750
713.95                    0.3754
714.21                    0.3758
714.48                    0.3660
714.74                    0.3664
715.01                    0.3668
715.27                    0.3703
715.54                    0.3796
715.80                    0.3800
716.07                    0.3774
716.33                    0.3734
716.60                    0.3738
716.87                    0.3743
717.13                    0.3702
717.40                    0.3706
717.66                    0.3746
717.93                    0.3750
718.19                    0.3754
718.46                    0.3723
718.72                    0.3727
718.99                    0.3732
719.25                    0.3736
719.52                    0.3741
719.78                    0.3745
720.05                    0.3750
720.32                    0.3755
720.58                    0.3760
720.85                    0.3765
721.11                    0.3770
721.38                    0.3774
721.64                    0.3779
721.91                    0.3784
722.17                    0.3811
722.44                    0.3816
722.70                    0.3843
722.97                    0.3826
723.23                    0.3832
723.50                    0.3814
723.76                    0.4966
724.03                    0.4974
724.30                    0.5946
724.56                    0.4924
724.83                    0.4959
725.09                    0.3995
725.36                    0.3918
725.62                    0.3895
725.89                    0.3900
726.15                    0.3863
726.42                    0.3868
726.68                    0.3955
726.95                    0.3960
727.21                    0.4905
727.48                    0.4829
727.74                    0.4836
728.01                    0.3899
728.28                    0.3967
728.54                    0.3972
728.81                    0.4001
729.07                    0.3961
729.34                    0.5767
729.60                    0.5752
729.87                    0.5741
730.13                    0.4215
730.40                    0.4227
730.66                    0.4232
730.93                    0.4229
731.19                    0.4229
731.46                    0.4511
731.72                    0.4580
731.99                    0.4587
732.26                    0.4314
732.52                    0.3984
732.79                    0.4026
733.05                    0.4030
733.32                    0.4036
733.58                    0.4004
733.85                    2.1428
734.11                    2.1596
734.38                    2.1629
734.64                    0.4213
734.91                    0.4092
735.17                    0.4097
735.44                    0.4197
735.70                    0.4192
735.97                    0.4253
736.24                    0.4111
736.50                    0.4176
736.77                    0.4125
737.03                    0.4327
737.30                    0.4298
737.56                    0.4487
737.83                    0.4336
738.09                    0.4541
738.36                    0.4365
738.62                    0.4334
738.89                    0.4116
739.15                    0.4119
739.42                    0.4119
739.68                    0.4165
739.95                    0.4248
740.22                    0.4255
740.48                    0.4221
740.75                    0.4245
741.01                    0.4617
741.28                    0.4640
741.54                    0.4859
741.81                    0.4492
742.07                    0.4562
742.34                    0.4254
742.60                    0.4494
742.87                    0.4408
743.13                    0.4493
743.40                    0.4262
743.66                    0.4430
743.93                    0.4403
744.20                    0.4433
744.46                    0.4275
744.73                    0.4279
744.99                    0.4394
745.26                    0.4399
745.52                    0.4371
745.79                    0.4378
746.05                    0.4403
746.32                    0.4524
746.58                    0.4506
746.85                    0.6392
747.11                    0.6695
747.38                    0.6592
747.64                    0.5693
747.91                    0.5413
748.18                    0.5629
748.44                    0.4657
748.71                    0.4588
748.97                    0.4376
749.24                    0.4390
749.50                    0.4472
749.77                    0.4662
750.03                    0.4798
750.30                    0.4669
750.56                    0.4662
750.83                    0.5368
751.09                    0.5399
751.36                    0.5765
751.63                    0.4963
751.89                    0.4970
752.16                    0.8250
752.42                    0.8253
752.69                    0.8332
752.95                    0.4797
753.22                    0.4968
753.48                    0.4954
753.75                    0.5233
754.01                    0.5194
754.28                    0.5138
754.54                    0.4595
754.81                    0.4680
755.07                    0.5066
755.34                    0.5155
755.61                    0.4922
755.87                    0.4586
756.14                    0.4692
756.40                    0.4824
756.67                    0.4786
756.93                    1.1114
757.20                    1.1850
757.46                    1.1844
757.73                    0.5367
757.99                    0.4572
758.26                    0.4657
758.52                    0.4623
758.79                    0.4563
759.05                    0.4537
759.32                    0.4543
759.59                    0.6508
759.85                    0.6469
760.12                    0.6476
760.38                    0.4522
760.65                    0.4529
760.91                    0.4536
761.18                    0.4624
761.44                    0.4631
761.71                    0.4753
761.97                    0.4867
762.24                    0.4874
762.50                    0.4783
762.77                    0.4601
763.03                    0.4682
763.30                    0.4672
763.57                    0.4694
763.83                    0.4626
764.10                    0.4634
764.36                    0.4913
764.63                    0.4920
764.89                    0.4928
765.16                    0.4647
765.42                    0.4654
765.69                    0.4661
765.95                    0.6680
766.22                    0.6688
766.48                    0.6697
766.75                    0.4690
767.01                    0.4738
767.28                    0.4746
767.55                    0.4753
767.81                    0.4748
768.08                    0.4755
768.34                    0.4772
768.61                    0.4752
768.87                    0.5003
769.14                    0.5001
769.40                    0.5009
769.67                    0.5131
769.93                    0.5192
770.20                    0.5199
770.46                    0.5151
770.73                    0.5305
770.99                    2.3120
771.26                    2.6511
771.53                    3.0124
771.79                    1.2683
772.06                    0.9190
772.32                    0.9055
772.59                    0.8705
772.85                    0.8600
773.12                    0.5197
773.38                    0.5205
773.65                    0.5140
773.91                    0.4938
774.18                    0.4946
774.44                    0.4990
774.71                    0.5138
774.97                    0.5341
775.24                    0.5314
775.51                    0.5141
775.77                    0.5233
776.04                    0.5241
776.30                    0.5261
776.57                    0.4990
776.83                    0.4998
777.10                    0.5638
777.36                    0.5646
777.63                    0.5655
777.89                    0.5021
778.16                    0.5074
778.42                    0.5382
778.69                    0.5500
778.96                    0.5873
779.22                    0.5617
779.49                    0.5516
779.75                    0.5114
780.02                    0.5256
780.28                    0.5264
780.55                    0.8955
780.81                    0.8794
781.08                    0.8801
781.34                    0.5340
781.61                    0.5838
781.87                    4.4419
782.14                    4.4197
782.40                    4.3694
782.67                    0.5243
782.94                    0.5251
783.20                    0.5260
783.47                    0.5209
783.73                    0.5218
784.00                    0.5228
784.26                    0.5229
784.53                    0.5238
784.79                    0.5304
785.06                    3.3739
785.32                    3.3731
785.59                    3.3667
785.85                    0.5284
786.12                    0.5293
786.38                    0.5301
786.65                    0.5310
786.92                    0.5320
787.18                    0.5329
787.45                    0.5339
787.71                    0.5348
787.98                    0.5358
788.24                    0.5368
788.51                    0.5464
788.77                    0.6359
789.04                    0.6369
789.30                    0.6293
789.57                    0.5416
789.83                    0.5426
790.10                    0.5436
790.36                    0.5446
790.63                    0.5456
790.90                    0.5485
791.16                    0.5495
791.43                    0.5505
791.69                    0.5821
791.96                    0.5831
792.22                    0.5841
792.49                    0.5527
792.75                    0.5788
793.02                    0.5799
793.28                    0.5809
793.55                    0.5569
793.81                    0.5579
794.08                    0.5596
794.34                    0.5977
794.61                    0.6243
794.88                    0.6247
795.14                    0.5939
795.41                    0.5694
795.67                    0.5705
795.94                    0.5664
796.20                    3.2245
796.47                    3.2263
796.73                    3.2282
797.00                    0.5709
797.26                    0.5766
797.53                    0.5777
797.79                    0.5788
798.06                    0.5754
798.32                    0.5765
798.59                    0.5776
798.86                    0.5878
799.12                    0.6145
799.39                    0.6157
799.65                    0.6079
799.92                    0.5847
800.18                    0.5906
800.45                    0.5919
800.71                    0.5917
800.98                    0.5883
801.24                    0.6581
801.51                    0.6595
801.77                    0.7731
802.04                    0.7144
802.30                    2.2429
802.57                    2.2351
802.84                    2.2307
803.10                    0.7037
803.37                    0.6052
803.63                    0.6143
803.90                    0.6108
804.16                    0.6108
804.43                    0.6043
804.69                    0.6445
804.96                    0.8668
805.22                    0.8813
805.49                    0.8641
805.75                    0.6781
806.02                    0.6666
806.29                    0.6596
806.55                    0.6557
806.82                    0.6889
807.08                    0.6782
807.35                    0.6749
807.61                    0.6758
807.88                    0.7178
808.14                    0.7871
808.41                    0.7586
808.67                    0.7193
808.94                    0.6280
809.20                    0.6309
809.47                    0.6471
809.73                    0.6487
810.00                    0.9790
810.27                    0.9655
810.53                    1.0042
810.80                    0.6784
811.06                    0.6954
811.33                    0.6658
811.59                    0.6756
811.86                    0.6839
812.12                    0.6812
812.39                    0.7166
812.65                    0.7030
812.92                    0.7280
813.18                    0.6876
813.45                    0.6900
813.71                    0.6931
813.98                    0.7038
814.25                    0.7061
814.51                    0.7406
814.78                    0.9337
815.04                    0.9317
815.31                    0.8996
815.57                    0.7244
815.84                    0.7200
816.10                    0.6972
816.37                    0.7740
816.63                    0.8232
816.90                    0.8566
817.16                    0.7566
817.43                    0.7122
817.69                    0.6961
817.96                    0.7003
818.23                    0.7027
818.49                    0.8052
818.76                    0.8329
819.02                    0.8642
819.29                    0.8458
819.55                    0.8134
819.82                    0.7820
820.08                    0.6850
820.35                    0.6864
820.61                    0.7069
820.88                    0.7291
821.14                    0.7403
821.41                    0.7252
821.67                    0.7127
821.94                    0.7314
822.21                    0.7360
822.47                    0.7423
822.74                    0.7432
823.00                    0.7401
823.27                    0.7510
823.53                    0.7272
823.80                    0.7271
824.06                    0.7056
824.33                    0.7537
824.59                    0.7575
824.86                    0.7838
825.12                    0.7370
825.39                    0.7620
825.65                    0.7852
825.92                    0.8401
826.19                    0.8942
826.45                    0.8643
826.72                    0.8122
826.98                    0.7763
827.25                    0.7625
827.51                    0.9730
827.78                    0.9331
828.04                    0.9348
828.31                    0.7365
828.57                    3.6592
828.84                    3.7260
829.10                    3.7375
829.37                    1.4429
829.63                    2.9150
829.90                    2.9355
830.17                    2.3034
830.43                    0.8073
830.70                    0.7780
830.96                    0.7796
831.23                    0.7656
831.49                    0.8250
831.76                    0.8267
832.02                    0.8062
832.29                    0.7497
832.55                    0.7511
832.82                    0.7527
833.08                    0.7543
833.35                    0.7559
833.62                    0.7888
833.88                    0.8480
834.15                    1.7163
834.41                    1.7022
834.68                    1.7391
834.94                    0.8726
835.21                    0.8737
835.47                    0.7831
835.74                    0.7939
836.00                    0.7815
836.27                    0.8471
836.53                    0.8399
836.80                    0.8418
837.06                    0.8031
837.33                    0.8049
837.60                    0.8077
837.86                    0.7857
838.13                    0.8764
838.39                    0.8807
838.66                    0.8827
838.92                    0.7952
839.19                    0.7961
839.45                    0.8211
839.72                    0.8704
839.98                    0.8700
840.25                    0.8485
840.51                    0.9547
840.78                    1.0175
841.04                    1.0215
841.31                    0.9403
841.58                    0.8933
841.84                    0.9234
842.11                    0.9208
842.37                    0.9747
842.64                    1.0541
842.90                    1.0033
843.17                    1.0279
843.43                    0.9468
843.70                    0.9449
843.96                    0.8638
844.23                    0.8417
844.49                    0.8373
844.76                    0.8362
845.02                    0.8660
845.29                    0.8671
845.56                    0.8693
845.82                    0.8435
846.09                    0.8456
846.35                    0.8477
846.62                    0.8852
846.88                    0.8884
847.15                    0.8905
847.41                    0.8570
847.68                    0.8582
847.94                    0.8603
848.21                    0.8625
848.47                    0.8646
848.74                    0.8668
849.00                    0.8774
849.27                    0.8796
849.54                    0.9417
849.80                    0.9356
850.07                    0.9556
850.33                    0.9249
850.60                    0.9299
850.86                    0.9146
851.13                    0.9378
851.39                    0.9394
851.66                    0.9448
851.92                    0.9326
852.19                    0.9731
852.45                    0.9724
852.72                    0.9406
852.98                    0.9026
853.25                    0.9049
853.52                    0.9072
853.78                    0.9095
854.05                    0.9118
854.31                    0.9142
854.58                    1.3479
854.84                    1.3506
855.11                    1.3534
855.37                    0.9233
855.64                    0.9256
855.90                    0.9280
856.17                    0.9304
856.43                    0.9328
856.70                    0.9352
856.96                    0.9376
857.23                    0.9400
857.50                    0.9424
857.76                    0.9448
858.03                    0.9473
858.29                    0.9497
858.56                    1.1372
858.82                    1.1400
859.09                    1.1427
859.35                    0.9994
859.62                    1.0019
859.88                    1.0044
860.15                    0.9670
860.41                    0.9695
860.68                    0.9720
860.95                    0.9745
861.21                    0.9771
861.48                    0.9796
861.74                    0.9925
862.01                    1.4039
862.27                    1.4072
862.54                    2.2660
862.80                    1.8596
863.07                    2.1023
863.33                    1.2363
863.60                    1.2393
863.86                    1.0025
864.13                    1.0051
864.39                    1.3202
864.66                    1.4118
864.93                    1.4148
865.19                    1.4318
865.46                    1.3459
865.72                    1.3488
865.99                    1.0235
866.25                    1.8011
866.52                    1.8046
866.78                    2.7919
867.05                    2.0192
867.31                    2.7390
867.58                    1.7686
867.84                    2.0250
868.11                    1.3103
868.37                    1.3015
868.64                    1.0507
868.91                    1.1516
869.17                    1.1545
869.44                    1.1575
869.70                    1.0678
869.97                    1.0705
870.23                    1.0732
870.50                    1.0721
870.76                    1.0750
871.03                    1.0778
871.29                    1.0783
871.56                    1.0812
871.82                    1.0840
872.09                    1.0869
872.35                    1.0898
872.62                    1.0927
872.89                    1.0956
873.15                    1.0985
873.42                    1.1014
873.68                    1.1043
873.95                    1.1073
874.21                    1.1779
874.48                    1.1810
874.74                    1.2305
875.01                    1.1693
875.27                    1.1724
875.54                    1.2300
875.80                    1.7490
876.07                    1.7803
876.33                    3.3749
876.60                    2.9527
876.87                    2.9280
877.13                    1.2378
877.40                    1.1483
877.66                    1.1515
877.93                    1.1544
878.19                    1.1596
878.46                    1.1932
878.72                    1.1963
878.99                    1.1950
879.25                    1.1672
879.52                    1.1703
879.78                    1.1734
880.05                    1.1764
880.31                    1.1798
880.58                    1.1829
880.85                    1.1861
881.11                    1.1893
881.38                    1.1925
881.64                    1.1956
881.91                    1.1988
882.17                    1.2335
882.44                   14.1416
882.70                   14.1730
882.97                   14.1791
883.23                    1.2324
883.50                    1.2591
883.76                    1.2503
884.03                    1.2538
884.29                    1.2281
884.56                    1.2313
884.83                    1.2789
885.09                    1.2825
885.36                    1.2857
885.62                    1.2446
885.89                    1.2475
886.15                    1.2509
886.42                    1.3645
886.68                    1.3680
886.95                    1.3716
887.21                    1.2644
887.48                    1.2678
887.74                    1.2712
888.01                    1.2745
888.27                    3.8508
888.54                    3.8590
888.81                    3.8673
889.07                    1.2884
889.34                    1.2919
889.60                    1.2954
889.87                    1.2989
890.13                    1.3053
890.40                    1.3088
890.66                    1.3123
890.93                    1.3129
891.19                    1.3165
891.46                    1.3200
891.72                    1.8410
891.99                    1.8455
892.26                    1.8501
892.52                    1.3343
892.79                    1.3379
893.05                    1.3414
893.32                    1.3449
893.58                    1.3483
893.85                    1.3520
894.11                    2.5034
894.38                    2.5094
894.64                    2.5155
894.91                    1.3897
895.17                    1.3935
895.44                    1.3972
895.70                    1.3913
895.97                    1.3951
896.24                    1.3988
896.50                    1.3890
896.77                    1.3928
897.03                    1.3966
897.30                    1.4454
897.56                    1.4561
897.83                    1.5913
898.09                    1.5575
898.36                    1.5553
898.62                    1.4427
898.89                    1.4392
899.15                    1.4426
899.42                    1.4310
899.68                    1.4349
899.95                    1.4870
900.22                    1.5153
900.48                    1.5195
900.75                    1.4746
901.01                    1.5130
901.28                    1.5226
901.54                    1.5269
901.81                    1.4754
902.07                    1.4741
902.34                    1.4782
902.60                    1.5643
902.87                    1.5687
903.13                    1.5934
903.40                    1.5298
903.66                    1.6270
903.93                    1.6111
904.20                    1.7255
904.46                    1.6454
904.73                    2.6052
904.99                    2.5114
905.26                    2.5512
905.52                    1.5929
905.79                    1.5701
906.05                    1.5336
906.32                    1.5379
906.58                    1.5422
906.85                    1.5465
907.11                    1.5509
907.38                    1.5552
907.64                    1.5595
907.91                    1.5640
908.18                    1.6681
908.44                    1.6726
908.71                    1.7306
908.97                    2.1700
909.24                    2.2012
909.50                    2.1540
909.77                    1.6397
910.03                    1.9116
910.30                    1.9175
910.56                    1.9022
910.83                    1.6121
911.09                    1.6412
911.36                    1.6587
911.62                    1.6634
911.89                    1.6432
912.16                    1.6941
912.42                    1.8720
912.69                    1.8775
912.95                    1.8230
913.22                    1.6994
913.48                    1.7042
913.75                    1.7266
914.01                    1.7554
914.28                    1.7653
914.54                    1.7999
914.81                    1.7368
915.07                    1.8128
915.34                    1.7701
915.60                    1.8459
915.87                    5.1766
916.14                    5.3646
916.40                    5.3147
916.67                    1.8821
916.93                    1.7596
917.20                    1.7633
917.46                    1.7897
917.73                    1.8457
917.99                    1.8852
918.26                    1.9938
918.52                    2.1455
918.79                    2.2061
919.05                    2.0949
919.32                    1.9052
919.59                    1.9848
919.85                    2.0613
920.00                    3.1782
920.50                    3.2047
921.00                    3.1981
921.50                    3.1822
922.00                    3.1836
922.50                    3.2041
923.00                    3.2018
923.50                    3.1826
924.00                    3.1657
924.50                    3.1568
925.00                    3.1536
925.50                    3.1648
926.00                    3.1674
926.50                    3.1671
927.00                    3.1744
927.50                    3.1405
928.00                    3.0764
928.50                    3.0528
929.00                    3.0489
929.50                    3.0048
930.00                    3.0237
930.50                    4.4609
931.00                    7.2740
931.50                    8.2236
932.00                    5.9619
932.50                    6.4542
933.00                    4.7831
933.50                    3.2254
934.00                    3.3143
934.50                    2.6214
935.00                    2.4109
935.50                    2.4099
936.00                    2.3062
936.50                    2.4532
937.00                    3.2870
937.50                    6.8517
938.00                    9.3415
938.50                    6.8438
939.00                    5.4904
939.50                    4.4183
940.00                    3.6010
940.50                    4.0321
941.00                    3.3512
941.50                    3.2576
942.00                    4.2708
942.50                    4.2804
943.00                    2.9056
943.50                    4.1569
944.00                    6.3912
944.50                    5.3544
945.00                    3.9006
945.50                    3.6208
946.00                    4.3359
946.50                    3.6489
947.00                    3.0309
947.50                    5.9893
948.00                    8.8340
948.50                    5.1222
949.00                    2.7915
949.50                    2.6282
950.00                    3.2251
950.50                    4.1675
951.00                    3.8113
951.50                    4.4713
952.00                    6.1710
952.50                    5.4206
953.00                    3.4414
953.50                    2.7828
954.00                    2.7463
954.50                    2.6474
955.00                    3.2635
955.50                    3.8506
956.00                    3.2801
956.50                    4.0210
957.00                    5.1233
957.50                    4.1816
958.00                    2.8300
958.50                    2.7241
959.00                    2.6574
959.50                    2.6358
960.00                    2.7610
960.50                    3.1082
961.00                    3.4282
961.50                    3.3216
962.00                    3.5872
962.50                    3.8679
963.00                    3.3401
963.50                    2.8836
964.00                    2.7945
964.50                    2.7813
965.00                    2.8595
965.50                    3.0343
966.00                    3.1271
966.50                    3.3728
967.00                    3.8697
967.50                    3.8573
968.00                    4.5495
968.50                    5.3818
969.00                    4.6758
969.50                    5.0704
970.00                    6.6331
970.50                    5.6742
971.00                    4.5520
971.50                    5.8947
972.00                    7.5693
972.50                    6.7768
973.00                    4.2148
973.50                    3.8236
974.00                    4.7259
974.50                    3.9786
975.00                    3.0922
975.50                    2.9401
976.00                    2.8811
976.50                    2.9031
977.00                    2.9512
977.50                    2.9681
978.00                    2.9422
978.50                    4.4136
979.00                   12.1606
979.50                   18.1350
980.00                   13.1736
980.50                    6.7000
981.00                    5.0119
981.50                    4.6090
982.00                    3.7573
982.50                    3.2047
983.00                    3.3814
983.50                    3.2007
984.00                    3.0038
984.50                    4.3141
985.00                    5.9522
985.50                    4.7936
986.00                    3.2148
986.50                    3.1224
987.00                    8.1663
987.50                   13.2910
988.00                    8.0238
988.50                    3.0481
989.00                    3.9497
989.50                    5.8934
990.00                    5.8248
990.50                    3.8817
991.00                    5.8082
991.50                   11.2773
992.00                   10.8446
992.50                    5.3975
993.00                    2.9554
993.50                    3.0631
994.00                    5.8648
994.50                   12.6234
995.00                   14.2854
995.50                   10.7633
996.00                   12.9412
996.50                   12.8893
997.00                    7.0977
997.50                    4.5973
998.00                    3.7996
998.50                    2.9937
999.00                    2.9395
999.50                    3.2500
1000.00                   4.0090
1000.50                   4.2018
1001.00                  10.0516
1001.50                  17.2652
1002.00                  11.7916
1002.50                   6.7944
1003.00                   6.8062
1003.50                   4.4966
1004.00                   3.7627
1004.50                   4.5638
1005.00                   3.8977
1005.50                   3.5043
1006.00                   4.8262
1006.50                   5.7714
1007.00                   5.1245
1007.50                   4.2431
1008.00                   7.0008
1008.50                  10.4514
1009.00                   6.7361
1009.50                   3.1271
1010.00                   4.3178
1010.50                   5.8209
1011.00                   4.7237
1011.50                   3.1785
1012.00                   6.1150
1012.50                  10.8358
1013.00                   8.9062
1013.50                   4.4902
1014.00                   3.1234
1014.50                   3.3033
1015.00                   5.0019
1015.50                   7.2648
1016.00                   7.0408
1016.50                   5.4900
1017.00                  10.5541
1017.50                  16.3382
1018.00                  10.7738
1018.50                   8.5877
1019.00                  13.2449
1019.50                  12.0749
1020.00                   8.1353
1020.50                   9.4418
1021.00                  15.7105
1021.50                  18.4008
1022.00                   9.8448
1022.50                   5.9682
1023.00                   9.9851
1023.50                   9.3469
1024.00                   4.8915
1024.50                   2.8401
1025.00                   2.8392
1025.50                   2.8372
1026.00                   2.8376
1026.50                   2.9037
1027.00                   3.3825
1027.50                   3.7491
1028.00                   5.3974
1028.50                  27.4290
1029.00                  48.3068
1029.50                  32.3474
1030.00                  16.7671
1030.50                  10.2884
1031.00                   6.7991
1031.50                   6.2834
1032.00                   3.9001
1032.50                   3.6004
1033.00                   4.1718
1033.50                   3.5290
1034.00                   3.1749
1034.50                   7.4297
1035.00                  12.0097
1035.50                   7.9772
1036.00                   3.4849
1036.50                   2.9528
1037.00                  15.8691
1037.50                  30.7878
1038.00                  18.0563
1038.50                   3.8846
1039.00                   3.1261
1039.50                   8.4097
1040.00                  13.3186
1040.50                   7.7524
1041.00                   2.8256
1041.50                  15.3710
1042.00                  31.1161
1042.50                  20.3436
1043.00                   5.3773
1043.50                   2.9226
1044.00                   2.7971
1044.50                   3.7974
1045.00                   7.9187
1045.50                  10.0469
1046.00                   5.7882
1046.50                   9.5626
1047.00                  19.8609
1047.50                  15.8513
1048.00                   5.7994
1048.50                   2.7529
1049.00                   2.7504
1049.50                   2.7619
1050.00                   2.7800
1050.50                   4.1899
1051.00                   6.4888
1051.50                   5.8240
1052.00                   5.6939
1052.50                   9.7565
1053.00                  10.2091
1053.50                   5.3104
1054.00                   2.7327
1054.50                   2.7310
1055.00                   2.7292
1055.50                   2.7274
1056.00                   2.7256
1056.50                   2.7304
1057.00                   3.5632
1057.50                   4.4777
1058.00                   3.9216
1058.50                   4.7888
1059.00                   5.9621
1059.50                   4.1514
1060.00                   2.7244
1060.50                   2.7207
1061.00                   2.7115
1061.50                   2.7056
1062.00                   2.7036
1062.50                   2.7014
1063.00                   2.6994
1063.50                   2.7456
1064.00                   3.0106
1064.50                   3.1955
1065.00                   3.3761
1065.50                   3.6515
1066.00                   3.1827
1066.50                   2.7076
1067.00                   2.6842
1067.50                   2.6809
1068.00                   2.7972
1068.50                   3.5593
1069.00                   4.5135
1069.50                   6.0125
1070.00                   7.7615
1070.50                   7.3347
1071.00                   9.9137
1071.50                  12.9712
1072.00                   9.8548
1072.50                  13.9541
1073.00                  21.4980
1073.50                  14.9486
1074.00                   8.5226
1074.50                  11.5340
1075.00                  20.0709
1075.50                  25.1790
1076.00                  12.5728
1076.50                   2.7264
1077.00                   6.7055
1077.50                  10.8766
1078.00                   6.8111
1078.50                   2.7667
1079.00                   2.6523
1079.50                   2.6613
1080.00                   2.6607
1080.50                   2.6620
1081.00                   2.6430
1081.50                   2.6250
1082.00                   2.6272
1082.50                   6.7205
1083.00                  39.1501
1083.50                  65.4825
1084.00                  43.5472
1084.50                  25.0510
1085.00                  13.5363
1085.50                   7.1707
1086.00                  10.0564
1086.50                   6.0355
1087.00                   2.8590
1087.50                   3.9983
1088.00                   4.8055
1088.50                   3.5759
1089.00                   3.7000
1089.50                  10.1195
1090.00                  14.8100
1090.50                   8.2456
1091.00                   2.8084
1091.50                   2.5956
1092.00                  19.4508
1092.50                  40.9108
1093.00                  28.0136
1093.50                   6.9027
1094.00                   2.6164
1094.50                   9.0740
1095.00                  17.3780
1095.50                  12.1234
1096.00                   3.9903
1096.50                   2.7752
1097.00                  24.6240
1097.50                  48.0752
1098.00                  25.6450
1098.50                   3.4437
1099.00                   2.5256
1099.50                   2.5006
1100.00                   2.9671
