# sky background 0.3-1.0um
# DARKEST optical sky - 20%ile conditions (day 3)
# AM=2.0
#
#derived from sky spectrum with constant slope to match assumed photometric background
#increasingly poor model at very bright sky (day14);  patched to near-IR background at 920nm
#
#1 March 2001 : Phil Puxley

#nm         phot/s/nm/arcsec^2/m^2
320.00                    0.0000
349.99                    0.0000
350.17                    0.3527
350.43                    0.3526
350.70                    0.3526
350.96                    0.3525
351.23                    0.3524
351.49                    0.3523
351.76                    0.3523
352.02                    0.3522
352.29                    0.3521
352.55                    0.3521
352.82                    0.3520
353.08                    0.3519
353.35                    0.3518
353.62                    0.3518
353.88                    0.3517
354.15                    0.3516
354.41                    0.3515
354.68                    0.3515
354.94                    0.3514
355.21                    0.3513
355.47                    0.3512
355.74                    0.3512
356.00                    0.3511
356.27                    0.3510
356.53                    0.3509
356.80                    0.3509
357.07                    0.3508
357.33                    0.3507
357.60                    0.3506
357.86                    0.3506
358.13                    0.3505
358.39                    0.3504
358.66                    0.3503
358.92                    0.3503
359.19                    0.3502
359.45                    0.3501
359.72                    0.3500
359.98                    0.3500
360.25                    0.3499
360.51                    0.3498
360.78                    0.3497
361.05                    0.3497
361.31                    0.3496
361.58                    0.3495
361.84                    0.3494
362.11                    0.3494
362.37                    0.3493
362.64                    0.3492
362.90                    0.3491
363.17                    0.3491
363.43                    0.3490
363.70                    0.3489
363.96                    0.3488
364.23                    0.3488
364.49                    0.3487
364.76                    0.3486
365.03                    0.3485
365.29                    0.3485
365.56                    0.3484
365.82                    0.3483
366.09                    0.3482
366.35                    0.3482
366.62                    0.3481
366.88                    0.3480
367.15                    0.3479
367.41                    0.3479
367.68                    0.3478
367.94                    0.3477
368.21                    0.3476
368.47                    0.3476
368.74                    0.3475
369.01                    0.3474
369.27                    0.3473
369.54                    0.3473
369.80                    0.3472
370.07                    0.3471
370.33                    0.3470
370.60                    0.3470
370.86                    0.3469
371.13                    0.3468
371.39                    0.3467
371.66                    0.3467
371.92                    0.3466
372.19                    0.3465
372.45                    0.3464
372.72                    0.3464
372.99                    0.3463
373.25                    0.3462
373.52                    0.3461
373.78                    0.3461
374.05                    0.3460
374.31                    0.3459
374.58                    0.3458
374.84                    0.3458
375.11                    0.3457
375.37                    0.3456
375.64                    0.3455
375.90                    0.3455
376.17                    0.3454
376.43                    0.3453
376.70                    0.3452
376.97                    0.3452
377.23                    0.3451
377.50                    0.3450
377.76                    0.3449
378.03                    0.3449
378.29                    0.3448
378.56                    0.3447
378.82                    0.3446
379.09                    0.3446
379.35                    0.3445
379.62                    0.3444
379.88                    0.3443
380.15                    0.3443
380.41                    0.3442
380.68                    0.3441
380.95                    0.3440
381.21                    0.3440
381.48                    0.3439
381.74                    0.3438
382.01                    0.3437
382.27                    0.3437
382.54                    0.3436
382.80                    0.3435
383.07                    0.3434
383.33                    0.3434
383.60                    0.3433
383.86                    0.3432
384.13                    0.3431
384.40                    0.3431
384.66                    0.3430
384.93                    0.3429
385.19                    0.3428
385.46                    0.3428
385.72                    0.3427
385.99                    0.3426
386.25                    0.3426
386.52                    0.3425
386.78                    0.3424
387.05                    0.3424
387.31                    0.3423
387.58                    0.3423
387.84                    0.3422
388.11                    0.3421
388.38                    0.3421
388.64                    0.3420
388.91                    0.3420
389.17                    0.3419
389.44                    0.3419
389.70                    0.3418
389.97                    0.3418
390.23                    0.3417
390.50                    0.3417
390.76                    0.3417
391.03                    0.3416
391.29                    0.3416
391.56                    0.3416
391.82                    0.3416
392.09                    0.3415
392.36                    0.3415
392.62                    0.3415
392.89                    0.3414
393.15                    0.3414
393.42                    0.3414
393.68                    0.3413
393.95                    0.3413
394.21                    0.3413
394.48                    0.3412
394.74                    0.3412
395.01                    0.3412
395.27                    0.3411
395.54                    0.3411
395.80                    0.3411
396.07                    0.3410
396.34                    0.3410
396.60                    0.3410
396.87                    0.3409
397.13                    0.3409
397.40                    0.3409
397.66                    0.3408
397.93                    0.3408
398.19                    0.3408
398.46                    0.3407
398.72                    0.3407
398.99                    0.3406
399.25                    0.3406
399.52                    0.3406
399.78                    0.3405
400.05                    0.3404
400.32                    0.3404
400.58                    0.3404
400.85                    0.3403
401.11                    0.3403
401.38                    0.3403
401.64                    0.3402
401.91                    0.3402
402.17                    0.3401
402.44                    0.3401
402.70                    0.3400
402.97                    0.3400
403.23                    0.3399
403.50                    0.3399
403.76                    0.3399
404.03                    0.3398
404.30                    0.3398
404.56                    0.3397
404.83                    0.3397
405.09                    0.3397
405.36                    0.3396
405.62                    0.3396
405.89                    0.3396
406.15                    0.3395
406.42                    0.3395
406.68                    0.3395
406.95                    0.3394
407.21                    0.3394
407.48                    0.3394
407.74                    0.3394
408.01                    0.3393
408.28                    0.3393
408.54                    0.3393
408.81                    0.3393
409.07                    0.3392
409.34                    0.3392
409.60                    0.3392
409.87                    0.3392
410.13                    0.3392
410.40                    0.3392
410.66                    0.3392
410.93                    0.3392
411.19                    0.3392
411.46                    0.3392
411.73                    0.3392
411.99                    0.3392
412.26                    0.3392
412.52                    0.3392
412.79                    0.3392
413.05                    0.3392
413.32                    0.3392
413.58                    0.3392
413.85                    0.3392
414.11                    0.3392
414.38                    0.3392
414.64                    0.3392
414.91                    0.3392
415.17                    0.3392
415.44                    0.3392
415.71                    0.3392
415.97                    0.3392
416.24                    0.3392
416.50                    0.3392
416.77                    0.3392
417.03                    0.3392
417.30                    0.3392
417.56                    0.3392
417.83                    0.3392
418.09                    0.3391
418.36                    0.3391
418.62                    0.3391
418.89                    0.3391
419.15                    0.3391
419.42                    0.3391
419.69                    0.3390
419.95                    0.3390
420.22                    0.3390
420.48                    0.3389
420.75                    0.3389
421.01                    0.3388
421.28                    0.3388
421.54                    0.3388
421.81                    0.3387
422.07                    0.3387
422.34                    0.3386
422.60                    0.3386
422.87                    0.3385
423.13                    0.3385
423.40                    0.3385
423.67                    0.3384
423.93                    0.3384
424.20                    0.3383
424.46                    0.3383
424.73                    0.3383
424.99                    0.3382
425.26                    0.3382
425.52                    0.3382
425.79                    0.3381
426.05                    0.3381
426.32                    0.3380
426.58                    0.3380
426.85                    0.3380
427.11                    0.3379
427.38                    0.3379
427.65                    0.3379
427.91                    0.3378
428.18                    0.3378
428.44                    0.3378
428.71                    0.3377
428.97                    0.3377
429.24                    0.3377
429.50                    0.3376
429.77                    0.3376
430.03                    0.3376
430.30                    0.3376
430.56                    0.3376
430.83                    0.3375
431.09                    0.3375
431.36                    0.3375
431.63                    0.3375
431.89                    0.3375
432.16                    0.3374
432.42                    0.3374
432.69                    0.3374
432.95                    0.3374
433.22                    0.3374
433.48                    0.3374
433.75                    0.3374
434.01                    0.3373
434.28                    0.3373
434.54                    0.3373
434.81                    0.3373
435.07                    0.3373
435.34                    0.3373
435.61                    0.3373
435.87                    0.3373
436.14                    0.3373
436.40                    0.3373
436.67                    0.3372
436.93                    0.3372
437.20                    0.3372
437.46                    0.3372
437.73                    0.3372
437.99                    0.3372
438.26                    0.3372
438.52                    0.3373
438.79                    0.3373
439.05                    0.3373
439.32                    0.3373
439.59                    0.3373
439.85                    0.3373
440.12                    0.3373
440.38                    0.3374
440.65                    0.3374
440.91                    0.3374
441.18                    0.3375
441.44                    0.3375
441.71                    0.3375
441.97                    0.3376
442.24                    0.3376
442.50                    0.3376
442.77                    0.3377
443.04                    0.3377
443.30                    0.3377
443.57                    0.3378
443.83                    0.3378
444.10                    0.3378
444.36                    0.3378
444.63                    0.3379
444.89                    0.3379
445.16                    0.3379
445.42                    0.3380
445.69                    0.3380
445.95                    0.3380
446.22                    0.3380
446.48                    0.3381
446.75                    0.3381
447.02                    0.3381
447.28                    0.3381
447.55                    0.3381
447.81                    0.3381
448.08                    0.3382
448.34                    0.3382
448.61                    0.3382
448.87                    0.3382
449.14                    0.3382
449.40                    0.3382
449.67                    0.3382
449.93                    0.3382
450.20                    0.3382
450.46                    0.3382
450.73                    0.3382
451.00                    0.3382
451.26                    0.3382
451.53                    0.3382
451.79                    0.3382
452.06                    0.3382
452.32                    0.3381
452.59                    0.3381
452.85                    0.3381
453.12                    0.3381
453.38                    0.3381
453.65                    0.3381
453.91                    0.3381
454.18                    0.3381
454.44                    0.3381
454.71                    0.3380
454.98                    0.3380
455.24                    0.3380
455.51                    0.3380
455.77                    0.3380
456.04                    0.3380
456.30                    0.3380
456.57                    0.3380
456.83                    0.3380
457.10                    0.3380
457.36                    0.3380
457.63                    0.3380
457.89                    0.3380
458.16                    0.3380
458.42                    0.3380
458.69                    0.3379
458.96                    0.3379
459.22                    0.3379
459.49                    0.3379
459.75                    0.3379
460.02                    0.3379
460.28                    0.3380
460.55                    0.3380
460.81                    0.3380
461.08                    0.3380
461.34                    0.3380
461.61                    0.3380
461.87                    0.3380
462.14                    0.3380
462.40                    0.3380
462.67                    0.3381
462.94                    0.3381
463.20                    0.3381
463.47                    0.3381
463.73                    0.3381
464.00                    0.3381
464.26                    0.3381
464.53                    0.3382
464.79                    0.3382
465.06                    0.3382
465.32                    0.3382
465.59                    0.3382
465.85                    0.3382
466.12                    0.3383
466.38                    0.3383
466.65                    0.3383
466.92                    0.3383
467.18                    0.3384
467.45                    0.3384
467.71                    0.3384
467.98                    0.3385
468.24                    0.3385
468.51                    0.3385
468.77                    0.3386
469.04                    0.3386
469.30                    0.3387
469.57                    0.3387
469.83                    0.3388
470.10                    0.3388
470.37                    0.3389
470.63                    0.3390
470.90                    0.3390
471.16                    0.3391
471.43                    0.3392
471.69                    0.3393
471.96                    0.3393
472.22                    0.3394
472.49                    0.3395
472.75                    0.3395
473.02                    0.3396
473.28                    0.3397
473.55                    0.3397
473.81                    0.3398
474.08                    0.3399
474.35                    0.3399
474.61                    0.3400
474.88                    0.3400
475.14                    0.3401
475.41                    0.3402
475.67                    0.3402
475.94                    0.3403
476.20                    0.3403
476.47                    0.3404
476.73                    0.3404
477.00                    0.3405
477.26                    0.3405
477.53                    0.3405
477.79                    0.3406
478.06                    0.3406
478.33                    0.3407
478.59                    0.3407
478.86                    0.3407
479.12                    0.3407
479.39                    0.3408
479.65                    0.3408
479.92                    0.3408
480.18                    0.3408
480.45                    0.3408
480.71                    0.3408
480.98                    0.3407
481.24                    0.3407
481.51                    0.3407
481.77                    0.3407
482.04                    0.3407
482.31                    0.3406
482.57                    0.3406
482.84                    0.3406
483.10                    0.3406
483.37                    0.3406
483.63                    0.3406
483.90                    0.3406
484.16                    0.3405
484.43                    0.3405
484.69                    0.3405
484.96                    0.3405
485.22                    0.3405
485.49                    0.3405
485.75                    0.3405
486.02                    0.3404
486.29                    0.3404
486.55                    0.3404
486.82                    0.3404
487.08                    0.3404
487.35                    0.3404
487.61                    0.3404
487.88                    0.3404
488.14                    0.3404
488.41                    0.3404
488.67                    0.3404
488.94                    0.3404
489.20                    0.3404
489.47                    0.3404
489.73                    0.3404
490.00                    0.3404
490.27                    0.3404
490.53                    0.3404
490.80                    0.3404
491.06                    0.3404
491.33                    0.3405
491.59                    0.3405
491.86                    0.3405
492.12                    0.3405
492.39                    0.3405
492.65                    0.3405
492.92                    0.3406
493.18                    0.3406
493.45                    0.3406
493.71                    0.3406
493.98                    0.3406
494.25                    0.3406
494.51                    0.3407
494.78                    0.3407
495.04                    0.3407
495.31                    0.3407
495.57                    0.3407
495.84                    0.3408
496.10                    0.3408
496.37                    0.3408
496.63                    0.3408
496.90                    0.3408
497.16                    0.3409
497.43                    0.3409
497.70                    0.3409
497.96                    0.3409
498.23                    0.3410
498.49                    0.3410
498.76                    0.3410
499.02                    0.3410
499.29                    0.3410
499.55                    0.3411
499.82                    0.3411
500.08                    0.3411
500.35                    0.3412
500.61                    0.3412
500.88                    0.3412
501.14                    0.3413
501.41                    0.3413
501.68                    0.3413
501.94                    0.3414
502.21                    0.3414
502.47                    0.3414
502.74                    0.3415
503.00                    0.3415
503.27                    0.3415
503.53                    0.3416
503.80                    0.3416
504.06                    0.3416
504.33                    0.3417
504.59                    0.3417
504.86                    0.3417
505.12                    0.3418
505.39                    0.3418
505.66                    0.3419
505.92                    0.3419
506.19                    0.3419
506.45                    0.3420
506.72                    0.3420
506.98                    0.3420
507.25                    0.3421
507.51                    0.3421
507.78                    0.3421
508.04                    0.3422
508.31                    0.3422
508.57                    0.3422
508.84                    0.3423
509.10                    0.3423
509.37                    0.3423
509.64                    0.3424
509.90                    0.3425
510.17                    0.3425
510.43                    0.3426
510.70                    0.3426
510.96                    0.3432
511.23                    0.3403
511.49                    0.3443
511.76                    0.3464
512.02                    0.3458
512.29                    0.3351
512.55                    0.3225
512.82                    0.3229
513.08                    0.3351
513.35                    0.3424
513.62                    0.3388
513.88                    0.3314
514.15                    0.3335
514.41                    0.3346
514.68                    0.3371
514.94                    0.3330
515.21                    0.3309
515.47                    0.3254
515.74                    0.3229
516.00                    0.3246
516.27                    0.3177
516.53                    0.3119
516.80                    0.3077
517.06                    0.3217
517.33                    0.3280
517.60                    0.3373
517.86                    0.3248
518.13                    0.3306
518.39                    0.3318
518.66                    0.3487
518.92                    0.3431
519.19                    0.3544
519.45                    0.4618
519.72                    0.5899
519.98                    0.6270
520.25                    0.5282
520.51                    0.4041
520.78                    0.3555
521.04                    0.3388
521.31                    0.3365
521.58                    0.3385
521.84                    0.3455
522.11                    0.3578
522.37                    0.3447
522.64                    0.3321
522.90                    0.3231
523.17                    0.3304
523.43                    0.3367
523.70                    0.3419
523.96                    0.3440
524.23                    0.3411
524.49                    0.3357
524.76                    0.3307
525.03                    0.3391
525.29                    0.3433
525.56                    0.3485
525.82                    0.3355
526.09                    0.3202
526.35                    0.3106
526.62                    0.3109
526.88                    0.3213
527.15                    0.3386
527.41                    0.3531
527.68                    0.3572
527.94                    0.3624
528.21                    0.3495
528.47                    0.3364
528.74                    0.3210
529.01                    0.3273
529.27                    0.3365
529.54                    0.3442
529.80                    0.3462
530.07                    0.3467
530.33                    0.3420
530.60                    0.3412
530.86                    0.3575
531.13                    0.3601
531.39                    0.3589
531.66                    0.3407
531.92                    0.3372
532.19                    0.3343
532.45                    0.3430
532.72                    0.3595
532.99                    0.3803
533.25                    0.3716
533.52                    0.3540
533.78                    0.3351
534.05                    0.3357
534.31                    0.3415
534.58                    0.3448
534.84                    0.3411
535.11                    0.3342
535.37                    0.3332
535.64                    0.3409
535.90                    0.3463
536.17                    0.3450
536.43                    0.3398
536.70                    0.3379
536.97                    0.3359
537.23                    0.3443
537.50                    0.3410
537.76                    0.3353
538.03                    0.3212
538.29                    0.3189
538.56                    0.3220
538.82                    0.3346
539.09                    0.3315
539.35                    0.3306
539.62                    0.3239
539.88                    0.3276
540.15                    0.3304
540.41                    0.3288
540.68                    0.3377
540.95                    0.3327
541.21                    0.3415
541.48                    0.3309
541.74                    0.3378
542.01                    0.3253
542.27                    0.3232
542.54                    0.3214
542.80                    0.3270
543.07                    0.3381
543.33                    0.3470
543.60                    0.3468
543.86                    0.3482
544.13                    0.3325
544.39                    0.3379
544.66                    0.3335
544.93                    0.3464
545.19                    0.3453
545.46                    0.3438
545.72                    0.3415
545.99                    0.3457
546.25                    0.3518
546.52                    0.3551
546.78                    0.3487
547.05                    0.3331
547.31                    0.3198
547.58                    0.3208
547.84                    0.3297
548.11                    0.3300
548.37                    0.3360
548.64                    0.3418
548.91                    0.3598
549.17                    0.3562
549.44                    0.3637
549.70                    0.3601
549.97                    0.3637
550.23                    0.3580
550.50                    0.3590
550.76                    0.3587
551.03                    0.3566
551.29                    0.3531
551.56                    0.3518
551.82                    0.3505
552.09                    0.3439
552.36                    0.3329
552.62                    0.3288
552.89                    0.3329
553.15                    0.3524
553.42                    0.3567
553.68                    0.3664
553.95                    0.3708
554.21                    0.3920
554.48                    0.3967
554.74                    0.3906
555.01                    0.3785
555.27                    0.3717
555.54                    0.3655
555.80                    0.3698
556.07                    0.3832
556.34                    0.3945
556.60                    0.3955
556.87                    0.4080
557.13                    2.3712
557.40                    5.1087
557.66                    7.0059
557.93                    5.5008
558.19                    2.7619
558.46                    0.8412
558.72                    0.3885
558.99                    0.3826
559.25                    0.3779
559.52                    0.3671
559.78                    0.3672
560.05                    0.3844
560.32                    0.3945
560.58                    0.4002
560.85                    0.3770
561.11                    0.3510
561.38                    0.3511
561.64                    0.3712
561.91                    0.4042
562.17                    0.4157
562.44                    0.4121
562.70                    0.3867
562.97                    0.3639
563.23                    0.3484
563.50                    0.3552
563.76                    0.3638
564.03                    0.3689
564.30                    0.3781
564.56                    0.3899
564.83                    0.3881
565.09                    0.3713
565.36                    0.3515
565.62                    0.3512
565.89                    0.3581
566.15                    0.3683
566.42                    0.3814
566.68                    0.3909
566.95                    0.3854
567.21                    0.3787
567.48                    0.3740
567.74                    0.3826
568.01                    0.3718
568.28                    0.3661
568.54                    0.3510
568.81                    0.3624
569.07                    0.3772
569.34                    0.3931
569.60                    0.4052
569.87                    0.3937
570.13                    0.3928
570.40                    0.3754
570.66                    0.3794
570.93                    0.3689
571.19                    0.3713
571.46                    0.3750
571.72                    0.3923
571.99                    0.4010
572.26                    0.4044
572.52                    0.3913
572.79                    0.3896
573.05                    0.3851
573.32                    0.3866
573.58                    0.3825
573.85                    0.3771
574.11                    0.3839
574.38                    0.3873
574.64                    0.3905
574.91                    0.3772
575.17                    0.3721
575.44                    0.3666
575.70                    0.3775
575.97                    0.3687
576.24                    0.3706
576.50                    0.3703
576.77                    0.3817
577.03                    0.3838
577.30                    0.3796
577.56                    0.3750
577.83                    0.3753
578.09                    0.3723
578.36                    0.3728
578.62                    0.3633
578.89                    0.3620
579.15                    0.3641
579.42                    0.3664
579.68                    0.3742
579.95                    0.3773
580.22                    0.3924
580.48                    0.3935
580.75                    0.3865
581.01                    0.3751
581.28                    0.3761
581.54                    0.3829
581.81                    0.4004
582.07                    0.4117
582.34                    0.4153
582.60                    0.4008
582.87                    0.3996
583.13                    0.3990
583.40                    0.3990
583.67                    0.3976
583.93                    0.4124
584.20                    0.4984
584.46                    0.4903
584.73                    0.4794
584.99                    0.3956
585.26                    0.4032
585.52                    0.3930
585.79                    0.4005
586.05                    0.4367
586.32                    0.5180
586.58                    0.5624
586.85                    0.5541
587.11                    0.4970
587.38                    0.4761
587.65                    0.4597
587.91                    0.4585
588.18                    0.4716
588.44                    0.9493
588.71                    1.4726
588.97                    1.8942
589.24                    1.7121
589.50                    1.3669
589.77                    0.9586
590.03                    0.6768
590.30                    0.5160
590.56                    0.4962
590.83                    0.5078
591.09                    0.5409
591.36                    0.5637
591.63                    0.5569
591.89                    0.5302
592.16                    0.5067
592.42                    0.4970
592.69                    0.5131
592.95                    0.5543
593.22                    0.5960
593.48                    0.5556
593.75                    0.4882
594.01                    0.4407
594.28                    0.4604
594.54                    0.4766
594.81                    0.5125
595.07                    0.5427
595.34                    0.5451
595.61                    0.5047
595.87                    0.4505
596.14                    0.4323
596.40                    0.4322
596.67                    0.4578
596.93                    0.4830
597.20                    0.5075
597.46                    0.5271
597.73                    0.5200
597.99                    0.4908
598.26                    0.4501
598.52                    0.4404
598.79                    0.4537
599.05                    0.4498
599.32                    0.4407
599.59                    0.4361
599.85                    0.4433
600.12                    0.4597
600.38                    0.4512
600.65                    0.4430
600.91                    0.4204
601.18                    0.4095
601.44                    0.3982
601.71                    0.3920
601.97                    0.3858
602.24                    0.3838
602.50                    0.3938
602.77                    0.4057
603.03                    0.4104
603.30                    0.4046
603.57                    0.3971
603.83                    0.3935
604.10                    0.3927
604.36                    0.3925
604.63                    0.3864
604.89                    0.3754
605.16                    0.3634
605.42                    0.3561
605.69                    0.3573
605.95                    0.3638
606.22                    0.3747
606.48                    0.3795
606.75                    0.3711
607.01                    0.3688
607.28                    0.3616
607.55                    0.3706
607.81                    0.3608
608.08                    0.3640
608.34                    0.3579
608.61                    0.3589
608.87                    0.3596
609.14                    0.3598
609.40                    0.3695
609.67                    0.3723
609.93                    0.3742
610.20                    0.3699
610.46                    0.3728
610.73                    0.3711
611.00                    0.3691
611.26                    0.3563
611.53                    0.3553
611.79                    0.3439
612.06                    0.3408
612.32                    0.3442
612.59                    0.3490
612.85                    0.3512
613.12                    0.3412
613.38                    0.3681
613.65                    0.3945
613.91                    0.4203
614.18                    0.4059
614.44                    0.3965
614.71                    0.3737
614.98                    0.3689
615.24                    0.3919
615.51                    0.4332
615.77                    0.4370
616.04                    0.3967
616.30                    0.3724
616.57                    0.3939
616.83                    0.4262
617.10                    0.7282
617.36                    0.7180
617.63                    0.6964
617.89                    0.3767
618.16                    0.3567
618.42                    0.3437
618.69                    0.3407
618.96                    0.3383
619.22                    0.3454
619.49                    0.3469
619.75                    0.3732
620.02                    0.4004
620.28                    0.4131
620.55                    0.3911
620.81                    0.3698
621.08                    0.3687
621.34                    0.3778
621.61                    0.4025
621.87                    0.4305
622.14                    0.4299
622.40                    0.3964
622.67                    0.3736
622.94                    0.4323
623.20                    0.5905
623.47                    0.7185
623.73                    0.7480
624.00                    0.6464
624.26                    0.5443
624.53                    0.4504
624.79                    0.4038
625.06                    0.4131
625.32                    0.5120
625.59                    0.6259
625.85                    0.6600
626.12                    0.6062
626.38                    0.5341
626.65                    0.4908
626.92                    0.4602
627.18                    0.4358
627.45                    0.4314
627.71                    0.4376
627.98                    0.4508
628.24                    0.4976
628.51                    0.5790
628.77                    0.6101
629.04                    0.6044
629.30                    1.7293
629.57                    7.3390
629.83                   12.7286
630.10                   15.5250
630.36                    9.9649
630.63                    4.6087
630.90                    0.5892
631.16                    0.4756
631.43                    0.3953
631.69                    0.4343
631.96                    0.4957
632.22                    0.5055
632.49                    0.5631
632.75                    0.5953
633.02                    0.6473
633.28                    0.5485
633.55                    0.4415
633.81                    0.3629
634.08                    0.3578
634.34                    0.3967
634.61                    0.4193
634.88                    0.4476
635.14                    0.4862
635.41                    0.5564
635.67                    1.1197
635.94                    2.7220
636.20                    4.4127
636.47                    4.9703
636.73                    3.3077
637.00                    1.5157
637.26                    0.3762
637.53                    0.3869
637.79                    0.4054
638.06                    0.4197
638.33                    0.4348
638.59                    0.4367
638.86                    0.4146
639.12                    0.3753
639.39                    0.3507
639.65                    0.3399
639.92                    0.3474
640.18                    0.3447
640.45                    0.3546
640.71                    0.3480
640.98                    0.3518
641.24                    0.3488
641.51                    0.3596
641.77                    0.3755
642.04                    0.3873
642.31                    0.3797
642.57                    0.3598
642.84                    0.3469
643.10                    0.3433
643.37                    0.3353
643.63                    0.3220
643.90                    0.3170
644.16                    0.3212
644.43                    0.3323
644.69                    0.3431
644.96                    0.3601
645.22                    0.3888
645.49                    0.3986
645.75                    0.4056
646.02                    0.4649
646.29                    0.5543
646.55                    0.6345
646.82                    0.6236
647.08                    0.5478
647.35                    0.4739
647.61                    0.4073
647.88                    0.3950
648.14                    0.3769
648.41                    0.3752
648.67                    0.3578
648.94                    0.3480
649.20                    0.3488
649.47                    0.3544
649.73                    0.3630
650.00                    0.3671
650.27                    0.3941
650.53                    0.3876
650.80                    0.3763
651.06                    0.3476
651.33                    0.3540
651.59                    0.3497
651.86                    0.3451
652.12                    0.3489
652.39                    0.3572
652.65                    0.3599
652.92                    0.3600
653.18                    0.3588
653.45                    0.3656
653.71                    0.3699
653.98                    0.3790
654.25                    0.3813
654.51                    0.3702
654.78                    0.3745
655.04                    0.4312
655.31                    0.4408
655.57                    0.4410
655.84                    0.3841
656.10                    0.3755
656.37                    0.3583
656.63                    0.4254
656.90                    0.4355
657.16                    0.4428
657.43                    0.4053
657.69                    0.3955
657.96                    0.3954
658.23                    0.3622
658.49                    0.3686
658.76                    0.3633
659.02                    0.3608
659.29                    0.3605
659.55                    0.3610
659.82                    0.3616
660.08                    0.3632
660.35                    0.3638
660.61                    0.3662
660.88                    0.3603
661.14                    0.3737
661.41                    0.3725
661.67                    0.3745
661.94                    0.3624
662.21                    0.3646
662.47                    0.3838
662.74                    0.4039
663.00                    0.4031
663.27                    0.3874
663.53                    0.3775
663.80                    0.3778
664.06                    0.3745
664.33                    0.3660
664.59                    0.3681
664.86                    0.3690
665.12                    0.3723
665.39                    0.3760
665.66                    0.3791
665.92                    0.3772
666.19                    0.3731
666.45                    0.3776
666.72                    0.3780
666.98                    0.3786
667.25                    0.3723
667.51                    0.3728
667.78                    0.3753
668.04                    0.3759
668.31                    0.3764
668.57                    0.3751
668.84                    0.3757
669.10                    0.3762
669.37                    0.3770
669.64                    0.3873
669.90                    0.3904
670.17                    0.3908
670.43                    0.3963
670.70                    0.4143
670.96                    0.4427
671.23                    0.4385
671.49                    0.4341
671.76                    0.4220
672.02                    0.4157
672.29                    0.4125
672.55                    0.4017
672.82                    0.3992
673.08                    0.3885
673.35                    0.4161
673.62                    0.4166
673.88                    0.4172
674.15                    0.3880
674.41                    0.3900
674.68                    0.3916
674.94                    0.3922
675.21                    0.3916
675.47                    0.3941
675.74                    0.3935
676.00                    0.3972
676.27                    0.3968
676.53                    0.3970
676.80                    0.4063
677.06                    0.4228
677.33                    0.4235
677.60                    0.4137
677.86                    0.3963
678.13                    0.3967
678.39                    0.3954
678.66                    0.3961
678.92                    0.4173
679.19                    0.4180
679.45                    0.4225
679.72                    0.4216
679.98                    0.4220
680.25                    0.4185
680.51                    0.3997
680.78                    0.4003
681.04                    0.4009
681.31                    0.4014
681.58                    0.4020
681.84                    0.4025
682.11                    0.4031
682.37                    0.4037
682.64                    0.4234
682.90                    0.4291
683.17                    0.7698
683.43                    0.7514
683.70                    0.7471
683.96                    0.4217
684.23                    0.4223
684.49                    0.4228
684.76                    0.4086
685.02                    0.4092
685.29                    0.4097
685.56                    0.4103
685.82                    0.4108
686.09                    0.9135
686.35                    0.9145
686.62                    0.9156
686.88                    0.4237
687.15                    0.4242
687.41                    0.4247
687.68                    0.4146
687.94                    0.4331
688.21                    0.4337
688.47                    0.4353
688.74                    0.4178
689.00                    0.4214
689.27                    0.4209
689.54                    0.4244
689.80                    0.6807
690.07                    0.6817
690.33                    0.6850
690.60                    0.4257
690.86                    0.4262
691.13                    0.4215
691.39                    0.4221
691.66                    0.4349
691.92                    0.4354
692.19                    0.4359
692.45                    0.4241
692.72                    0.4247
692.99                    0.4252
693.25                    0.4341
693.52                    0.4437
693.78                    0.4576
694.05                    0.4513
694.31                    0.4441
694.58                    0.4312
694.84                    0.4442
695.11                    0.4498
695.37                    0.4696
695.64                    0.4851
695.90                    0.4954
696.17                    0.4815
696.43                    0.4559
696.70                    0.5033
696.97                    0.5090
697.23                    0.5175
697.50                    0.4589
697.76                    0.4503
698.03                    0.4399
698.29                    0.4361
698.56                    0.4435
698.82                    0.4463
699.09                    0.4468
699.35                    0.4475
699.62                    0.4498
699.88                    0.4629
700.15                    0.4589
700.41                    0.4552
700.68                    0.4429
700.95                    0.4399
701.21                    0.4404
701.48                    0.4408
701.74                    0.4413
702.01                    0.4417
702.27                    0.4421
702.54                    0.4430
702.80                    0.4467
703.07                    0.4487
703.33                    0.4487
703.60                    0.4502
703.86                    0.4915
704.13                    0.5069
704.39                    0.5034
704.66                    0.4629
704.93                    0.4603
705.19                    0.4604
705.46                    0.4594
705.72                    0.4606
705.99                    0.4736
706.25                    0.4741
706.52                    0.4650
706.78                    0.4773
707.05                    0.4979
707.31                    0.4952
707.58                    0.4809
707.84                    0.4701
708.11                    0.4705
708.37                    0.4613
708.64                    0.4532
708.91                    0.4539
709.17                    0.4544
709.44                    0.4612
709.70                    0.4630
709.97                    0.4634
710.23                    0.4571
710.50                    0.4848
710.76                    0.4958
711.03                    0.4965
711.29                    0.4680
711.56                    0.4580
711.82                    0.4583
712.09                    0.4587
712.35                    0.4592
712.62                    0.4596
712.89                    0.4658
713.15                    0.4663
713.42                    0.4667
713.68                    0.4717
713.95                    0.4722
714.21                    0.4727
714.48                    0.4629
714.74                    0.4634
715.01                    0.4639
715.27                    0.4674
715.54                    0.4768
715.80                    0.4773
716.07                    0.4747
716.33                    0.4708
716.60                    0.4712
716.87                    0.4717
717.13                    0.4677
717.40                    0.4682
717.66                    0.4722
717.93                    0.4727
718.19                    0.4732
718.46                    0.4701
718.72                    0.4706
718.99                    0.4711
719.25                    0.4716
719.52                    0.4721
719.78                    0.4726
720.05                    0.4731
720.32                    0.4737
720.58                    0.4742
720.85                    0.4748
721.11                    0.4753
721.38                    0.4759
721.64                    0.4764
721.91                    0.4770
722.17                    0.4797
722.44                    0.4803
722.70                    0.4831
722.97                    0.4814
723.23                    0.4820
723.50                    0.4803
723.76                    0.5955
724.03                    0.5964
724.30                    0.6937
724.56                    0.5916
724.83                    0.5951
725.09                    0.4988
725.36                    0.4912
725.62                    0.4889
725.89                    0.4894
726.15                    0.4858
726.42                    0.4864
726.68                    0.4951
726.95                    0.4957
727.21                    0.5902
727.48                    0.5827
727.74                    0.5835
728.01                    0.4898
728.28                    0.4967
728.54                    0.4972
728.81                    0.5001
729.07                    0.4963
729.34                    0.6769
729.60                    0.6755
729.87                    0.6744
730.13                    0.5219
730.40                    0.5231
730.66                    0.5237
730.93                    0.5235
731.19                    0.5235
731.46                    0.5518
731.72                    0.5588
731.99                    0.5594
732.26                    0.5322
732.52                    0.4993
732.79                    0.5035
733.05                    0.5040
733.32                    0.5046
733.58                    0.5015
733.85                    2.2440
734.11                    2.2608
734.38                    2.2642
734.64                    0.5227
734.91                    0.5106
735.17                    0.5112
735.44                    0.5212
735.70                    0.5208
735.97                    0.5270
736.24                    0.5128
736.50                    0.5194
736.77                    0.5143
737.03                    0.5346
737.30                    0.5317
737.56                    0.5507
737.83                    0.5356
738.09                    0.5562
738.36                    0.5387
738.62                    0.5356
738.89                    0.5139
739.15                    0.5142
739.42                    0.5142
739.68                    0.5190
739.95                    0.5273
740.22                    0.5281
740.48                    0.5247
740.75                    0.5271
741.01                    0.5645
741.28                    0.5668
741.54                    0.5888
741.81                    0.5521
742.07                    0.5592
742.34                    0.5284
742.60                    0.5525
742.87                    0.5439
743.13                    0.5525
743.40                    0.5294
743.66                    0.5463
743.93                    0.5436
744.20                    0.5468
744.46                    0.5309
744.73                    0.5314
744.99                    0.5430
745.26                    0.5436
745.52                    0.5408
745.79                    0.5415
746.05                    0.5441
746.32                    0.5563
746.58                    0.5546
746.85                    0.7432
747.11                    0.7736
747.38                    0.7633
747.64                    0.6735
747.91                    0.6455
748.18                    0.6672
748.44                    0.5701
748.71                    0.5633
748.97                    0.5420
749.24                    0.5435
749.50                    0.5518
749.77                    0.5709
750.03                    0.5845
750.30                    0.5717
750.56                    0.5711
750.83                    0.6417
751.09                    0.6448
751.36                    0.6815
751.63                    0.6013
751.89                    0.6021
752.16                    0.9302
752.42                    0.9306
752.69                    0.9385
752.95                    0.5851
753.22                    0.6022
753.48                    0.6008
753.75                    0.6288
754.01                    0.6250
754.28                    0.6194
754.54                    0.5652
754.81                    0.5738
755.07                    0.6124
755.34                    0.6213
755.61                    0.5982
755.87                    0.5645
756.14                    0.5753
756.40                    0.5885
756.67                    0.5848
756.93                    1.2176
757.20                    1.2913
757.46                    1.2907
757.73                    0.6431
757.99                    0.5636
758.26                    0.5722
758.52                    0.5688
758.79                    0.5629
759.05                    0.5604
759.32                    0.5611
759.59                    0.7576
759.85                    0.7537
760.12                    0.7545
760.38                    0.5592
760.65                    0.5599
760.91                    0.5607
761.18                    0.5696
761.44                    0.5703
761.71                    0.5825
761.97                    0.5940
762.24                    0.5948
762.50                    0.5857
762.77                    0.5676
763.03                    0.5757
763.30                    0.5748
763.57                    0.5770
763.83                    0.5704
764.10                    0.5711
764.36                    0.5991
764.63                    0.5999
764.89                    0.6007
765.16                    0.5727
765.42                    0.5735
765.69                    0.5742
765.95                    0.7761
766.22                    0.7771
766.48                    0.7780
766.75                    0.5774
767.01                    0.5822
767.28                    0.5830
767.55                    0.5838
767.81                    0.5833
768.08                    0.5841
768.34                    0.5859
768.61                    0.5840
768.87                    0.6091
769.14                    0.6090
769.40                    0.6098
769.67                    0.6221
769.93                    0.6282
770.20                    0.6290
770.46                    0.6243
770.73                    0.6398
770.99                    2.4213
771.26                    2.7604
771.53                    3.1218
771.79                    1.3778
772.06                    1.0285
772.32                    1.0151
772.59                    0.9801
772.85                    0.9697
773.12                    0.6294
773.38                    0.6303
773.65                    0.6239
773.91                    0.6037
774.18                    0.6046
774.44                    0.6090
774.71                    0.6239
774.97                    0.6443
775.24                    0.6416
775.51                    0.6244
775.77                    0.6337
776.04                    0.6345
776.30                    0.6365
776.57                    0.6095
776.83                    0.6104
777.10                    0.6744
777.36                    0.6753
777.63                    0.6762
777.89                    0.6129
778.16                    0.6183
778.42                    0.6491
778.69                    0.6610
778.96                    0.6983
779.22                    0.6728
779.49                    0.6627
779.75                    0.6226
780.02                    0.6368
780.28                    0.6377
780.55                    1.0069
780.81                    0.9908
781.08                    0.9915
781.34                    0.6455
781.61                    0.6954
781.87                    4.5536
782.14                    4.5314
782.40                    4.4812
782.67                    0.6361
782.94                    0.6370
783.20                    0.6380
783.47                    0.6330
783.73                    0.6339
784.00                    0.6349
784.26                    0.6350
784.53                    0.6360
784.79                    0.6427
785.06                    3.4862
785.32                    3.4855
785.59                    3.4792
785.85                    0.6409
786.12                    0.6418
786.38                    0.6428
786.65                    0.6437
786.92                    0.6447
787.18                    0.6457
787.45                    0.6468
787.71                    0.6478
787.98                    0.6487
788.24                    0.6498
788.51                    0.6595
788.77                    0.7491
789.04                    0.7501
789.30                    0.7425
789.57                    0.6550
789.83                    0.6560
790.10                    0.6571
790.36                    0.6581
790.63                    0.6592
790.90                    0.6621
791.16                    0.6632
791.43                    0.6642
791.69                    0.6959
791.96                    0.6970
792.22                    0.6980
792.49                    0.6667
792.75                    0.6929
793.02                    0.6939
793.28                    0.6950
793.55                    0.6711
793.81                    0.6722
794.08                    0.6739
794.34                    0.7121
794.61                    0.7388
794.88                    0.7392
795.14                    0.7085
795.41                    0.6840
795.67                    0.6852
795.94                    0.6811
796.20                    3.3393
796.47                    3.3412
796.73                    3.3431
797.00                    0.6858
797.26                    0.6916
797.53                    0.6928
797.79                    0.6940
798.06                    0.6905
798.32                    0.6917
798.59                    0.6929
798.86                    0.7031
799.12                    0.7299
799.39                    0.7312
799.65                    0.7234
799.92                    0.7003
800.18                    0.7062
800.45                    0.7076
800.71                    0.7075
800.98                    0.7041
801.24                    0.7740
801.51                    0.7754
801.77                    0.8891
802.04                    0.8304
802.30                    2.3590
802.57                    2.3512
802.84                    2.3469
803.10                    0.8200
803.37                    0.7216
803.63                    0.7307
803.90                    0.7272
804.16                    0.7273
804.43                    0.7208
804.69                    0.7611
804.96                    0.9835
805.22                    0.9981
805.49                    0.9809
805.75                    0.7950
806.02                    0.7835
806.29                    0.7766
806.55                    0.7727
806.82                    0.8060
807.08                    0.7954
807.35                    0.7921
807.61                    0.7930
807.88                    0.8352
808.14                    0.9045
808.41                    0.8761
808.67                    0.8368
808.94                    0.7455
809.20                    0.7485
809.47                    0.7648
809.73                    0.7665
810.00                    1.0968
810.27                    1.0833
810.53                    1.1221
810.80                    0.7964
811.06                    0.8134
811.33                    0.7839
811.59                    0.7937
811.86                    0.8021
812.12                    0.7995
812.39                    0.8350
812.65                    0.8214
812.92                    0.8464
813.18                    0.8061
813.45                    0.8086
813.71                    0.8117
813.98                    0.8225
814.25                    0.8248
814.51                    0.8594
814.78                    1.0525
815.04                    1.0506
815.31                    1.0186
815.57                    0.8434
815.84                    0.8391
816.10                    0.8163
816.37                    0.8932
816.63                    0.9424
816.90                    0.9759
817.16                    0.8760
817.43                    0.8317
817.69                    0.8156
817.96                    0.8198
818.23                    0.8222
818.49                    0.9248
818.76                    0.9526
819.02                    0.9840
819.29                    0.9656
819.55                    0.9332
819.82                    0.9019
820.08                    0.8050
820.35                    0.8064
820.61                    0.8270
820.88                    0.8493
821.14                    0.8605
821.41                    0.8454
821.67                    0.8331
821.94                    0.8518
822.21                    0.8565
822.47                    0.8629
822.74                    0.8638
823.00                    0.8607
823.27                    0.8717
823.53                    0.8480
823.80                    0.8479
824.06                    0.8265
824.33                    0.8746
824.59                    0.8785
824.86                    0.9049
825.12                    0.8581
825.39                    0.8832
825.65                    0.9064
825.92                    0.9614
826.19                    1.0156
826.45                    0.9856
826.72                    0.9337
826.98                    0.8978
827.25                    0.8840
827.51                    1.0946
827.78                    1.0548
828.04                    1.0565
828.31                    0.8583
828.57                    3.7810
828.84                    3.8479
829.10                    3.8594
829.37                    1.5649
829.63                    3.0371
829.90                    3.0577
830.17                    2.4256
830.43                    0.9296
830.70                    0.9003
830.96                    0.9019
831.23                    0.8880
831.49                    0.9475
831.76                    0.9493
832.02                    0.9288
832.29                    0.8723
832.55                    0.8738
832.82                    0.8755
833.08                    0.8772
833.35                    0.8788
833.62                    0.9117
833.88                    0.9710
834.15                    1.8394
834.41                    1.8253
834.68                    1.8623
834.94                    0.9958
835.21                    0.9970
835.47                    0.9065
835.74                    0.9173
836.00                    0.9049
836.27                    0.9706
836.53                    0.9635
836.80                    0.9654
837.06                    0.9268
837.33                    0.9286
837.60                    0.9315
837.86                    0.9096
838.13                    1.0004
838.39                    1.0047
838.66                    1.0067
838.92                    0.9193
839.19                    0.9202
839.45                    0.9454
839.72                    0.9947
839.98                    0.9944
840.25                    0.9729
840.51                    1.0792
840.78                    1.1420
841.04                    1.1460
841.31                    1.0649
841.58                    1.0179
841.84                    1.0482
842.11                    1.0456
842.37                    1.0996
842.64                    1.1790
842.90                    1.1283
843.17                    1.1529
843.43                    1.0719
843.70                    1.0700
843.96                    0.9890
844.23                    0.9669
844.49                    0.9627
844.76                    0.9616
845.02                    0.9914
845.29                    0.9926
845.56                    0.9948
845.82                    0.9691
846.09                    0.9713
846.35                    0.9735
846.62                    1.0110
846.88                    1.0142
847.15                    1.0164
847.41                    0.9830
847.68                    0.9842
847.94                    0.9864
848.21                    0.9886
848.47                    0.9908
848.74                    0.9930
849.00                    1.0037
849.27                    1.0060
849.54                    1.0681
849.80                    1.0621
850.07                    1.0822
850.33                    1.0515
850.60                    1.0566
850.86                    1.0413
851.13                    1.0646
851.39                    1.0662
851.66                    1.0716
851.92                    1.0596
852.19                    1.1001
852.45                    1.0994
852.72                    1.0677
852.98                    1.0298
853.25                    1.0321
853.52                    1.0345
853.78                    1.0369
854.05                    1.0392
854.31                    1.0416
854.58                    1.4754
854.84                    1.4782
855.11                    1.4810
855.37                    1.0510
855.64                    1.0534
855.90                    1.0558
856.17                    1.0582
856.43                    1.0607
856.70                    1.0631
856.96                    1.0656
857.23                    1.0681
857.50                    1.0706
857.76                    1.0730
858.03                    1.0755
858.29                    1.0780
858.56                    1.2656
858.82                    1.2684
859.09                    1.2712
859.35                    1.1279
859.62                    1.1305
859.88                    1.1331
860.15                    1.0957
860.41                    1.0983
860.68                    1.1009
860.95                    1.1035
861.21                    1.1060
861.48                    1.1086
861.74                    1.1215
862.01                    1.5330
862.27                    1.5364
862.54                    2.3953
862.80                    1.9890
863.07                    2.2317
863.33                    1.3658
863.60                    1.3688
863.86                    1.1321
864.13                    1.1347
864.39                    1.4498
864.66                    1.5415
864.93                    1.5446
865.19                    1.5616
865.46                    1.4758
865.72                    1.4788
865.99                    1.1535
866.25                    1.9312
866.52                    1.9348
866.78                    2.9221
867.05                    2.1494
867.31                    2.8693
867.58                    1.8990
867.84                    2.1554
868.11                    1.4408
868.37                    1.4321
868.64                    1.1813
868.91                    1.2822
869.17                    1.2852
869.44                    1.2882
869.70                    1.1986
869.97                    1.2014
870.23                    1.2041
870.50                    1.2031
870.76                    1.2060
871.03                    1.2089
871.29                    1.2095
871.56                    1.2124
871.82                    1.2153
872.09                    1.2182
872.35                    1.2212
872.62                    1.2242
872.89                    1.2271
873.15                    1.2301
873.42                    1.2331
873.68                    1.2360
873.95                    1.2390
874.21                    1.3097
874.48                    1.3129
874.74                    1.3624
875.01                    1.3013
875.27                    1.3044
875.54                    1.3621
875.80                    1.8811
876.07                    1.9126
876.33                    3.5072
876.60                    3.0850
876.87                    3.0603
877.13                    1.3702
877.40                    1.2808
877.66                    1.2841
877.93                    1.2871
878.19                    1.2923
878.46                    1.3259
878.72                    1.3291
878.99                    1.3278
879.25                    1.3001
879.52                    1.3033
879.78                    1.3064
880.05                    1.3095
880.31                    1.3129
880.58                    1.3161
880.85                    1.3194
881.11                    1.3226
881.38                    1.3258
881.64                    1.3291
881.91                    1.3323
882.17                    1.3670
882.44                   14.2752
882.70                   14.3067
882.97                   14.3128
883.23                    1.3661
883.50                    1.3929
883.76                    1.3842
884.03                    1.3877
884.29                    1.3621
884.56                    1.3654
884.83                    1.4130
885.09                    1.4167
885.36                    1.4200
885.62                    1.3789
885.89                    1.3819
886.15                    1.3853
886.42                    1.4990
886.68                    1.5026
886.95                    1.5061
887.21                    1.3990
887.48                    1.4025
887.74                    1.4059
888.01                    1.4093
888.27                    3.9857
888.54                    3.9940
888.81                    4.0023
889.07                    1.4235
889.34                    1.4270
889.60                    1.4305
889.87                    1.4341
890.13                    1.4405
890.40                    1.4441
890.66                    1.4477
890.93                    1.4484
891.19                    1.4520
891.46                    1.4556
891.72                    1.9766
891.99                    1.9812
892.26                    1.9859
892.52                    1.4701
892.79                    1.4738
893.05                    1.4773
893.32                    1.4808
893.58                    1.4844
893.85                    1.4881
894.11                    2.6396
894.38                    2.6457
894.64                    2.6518
894.91                    1.5260
895.17                    1.5299
895.44                    1.5337
895.70                    1.5278
895.97                    1.5316
896.24                    1.5355
896.50                    1.5257
896.77                    1.5295
897.03                    1.5334
897.30                    1.5823
897.56                    1.5930
897.83                    1.7283
898.09                    1.6946
898.36                    1.6923
898.62                    1.5798
898.89                    1.5764
899.15                    1.5799
899.42                    1.5683
899.68                    1.5723
899.95                    1.6244
900.22                    1.6528
900.48                    1.6570
900.75                    1.6122
901.01                    1.6506
901.28                    1.6603
901.54                    1.6646
901.81                    1.6132
902.07                    1.6120
902.34                    1.6162
902.60                    1.7023
902.87                    1.7068
903.13                    1.7316
903.40                    1.6679
903.66                    1.7653
903.93                    1.7494
904.20                    1.8639
904.46                    1.7838
904.73                    2.7437
904.99                    2.6499
905.26                    2.6898
905.52                    1.7315
905.79                    1.7088
906.05                    1.6724
906.32                    1.6767
906.58                    1.6811
906.85                    1.6855
907.11                    1.6899
907.38                    1.6942
907.64                    1.6987
907.91                    1.7031
908.18                    1.8073
908.44                    1.8119
908.71                    1.8699
908.97                    2.3094
909.24                    2.3406
909.50                    2.2935
909.77                    1.7793
910.03                    2.0512
910.30                    2.0572
910.56                    2.0419
910.83                    1.7519
911.09                    1.7811
911.36                    1.7987
911.62                    1.8034
911.89                    1.7832
912.16                    1.8342
912.42                    2.0121
912.69                    2.0177
912.95                    1.9633
913.22                    1.8397
913.48                    1.8446
913.75                    1.8671
914.01                    1.8959
914.28                    1.9058
914.54                    1.9405
914.81                    1.8775
915.07                    1.9535
915.34                    1.9109
915.60                    1.9868
915.87                    5.3175
916.14                    5.5056
916.40                    5.4558
916.67                    2.0232
916.93                    1.9008
917.20                    1.9045
917.46                    1.9310
917.73                    1.9870
917.99                    2.0266
918.26                    2.1353
918.52                    2.2870
918.79                    2.3477
919.05                    2.2365
919.32                    2.0468
919.59                    2.1265
919.85                    2.2030
920.00                    3.1782
920.50                    3.2047
921.00                    3.1983
921.50                    3.1841
922.00                    3.1883
922.50                    3.2101
923.00                    3.2061
923.50                    3.1839
924.00                    3.1657
924.50                    3.1568
925.00                    3.1536
925.50                    3.1648
926.00                    3.1674
926.50                    3.1671
927.00                    3.1744
927.50                    3.1405
928.00                    3.0765
928.50                    3.0532
929.00                    3.0498
929.50                    3.0059
930.00                    3.0544
930.50                    4.9400
931.00                    8.5605
931.50                    9.9495
932.00                    6.8479
932.50                    7.5531
933.00                    5.4233
933.50                    3.4296
934.00                    3.5763
934.50                    2.7234
935.00                    2.4193
935.50                    2.4109
936.00                    2.3064
936.50                    2.4533
937.00                    3.5253
937.50                    8.0742
938.00                   11.2624
938.50                    8.0550
939.00                    6.2922
939.50                    4.8971
940.00                    3.8145
940.50                    4.3889
941.00                    3.5149
941.50                    3.3990
942.00                    4.7174
942.50                    4.7783
943.00                    3.0164
943.50                    4.6493
944.00                    7.5096
944.50                    6.0975
945.00                    4.2823
945.50                    3.9048
946.00                    4.8520
946.50                    3.9514
947.00                    3.1277
947.50                    6.9658
948.00                   10.6846
948.50                    5.8001
949.00                    2.7964
949.50                    2.6307
950.00                    3.4586
950.50                    4.6299
951.00                    4.1236
951.50                    4.9905
952.00                    7.1626
952.50                    6.2391
953.00                    3.6647
953.50                    2.7828
954.00                    2.7463
954.50                    2.6496
955.00                    3.4441
955.50                    4.1925
956.00                    3.4546
956.50                    4.4326
957.00                    5.8301
957.50                    4.6120
958.00                    2.8389
958.50                    2.7241
959.00                    2.6574
959.50                    2.6358
960.00                    2.7617
960.50                    3.2002
961.00                    3.6061
961.50                    3.4611
962.00                    3.8244
962.50                    4.1937
963.00                    3.4909
963.50                    2.8837
964.00                    2.7945
964.50                    2.7814
965.00                    2.8658
965.50                    3.0701
966.00                    3.2007
966.50                    3.5340
967.00                    4.1846
967.50                    4.1490
968.00                    5.0669
968.50                    6.1462
969.00                    5.2227
969.50                    5.7402
970.00                    7.8222
970.50                    6.5383
971.00                    5.0611
971.50                    6.8472
972.00                    9.0524
972.50                    8.0030
973.00                    4.6230
973.50                    4.1136
974.00                    5.2979
974.50                    4.3236
975.00                    3.1549
975.50                    2.9561
976.00                    2.8811
976.50                    2.9031
977.00                    2.9512
977.50                    2.9681
978.00                    2.9422
978.50                    4.8892
979.00                   15.1683
979.50                   22.9525
980.00                   16.5082
980.50                    7.9035
981.00                    5.6828
981.50                    5.1421
982.00                    4.0142
982.50                    3.2852
983.00                    3.5199
983.50                    3.2758
984.00                    3.0120
984.50                    4.7526
985.00                    6.9263
985.50                    5.3919
986.00                    3.2918
986.50                    3.1692
987.00                    9.8719
987.50                   16.6750
988.00                    9.6859
988.50                    3.0723
989.00                    4.2712
989.50                    6.8559
990.00                    6.7649
990.50                    4.1834
991.00                    6.7444
991.50                   14.0158
992.00                   13.4415
992.50                    6.2011
993.00                    2.9554
993.50                    3.0986
994.00                    6.8237
994.50                   15.8101
995.00                   18.0216
995.50                   13.3385
996.00                   16.2343
996.50                   16.1677
997.00                    8.4666
997.50                    5.1431
998.00                    4.0829
998.50                    3.0120
999.00                    2.9406
999.50                    3.3542
1000.00                   4.3640
1000.50                   4.6209
1001.00                  12.4008
1001.50                  21.9929
1002.00                  14.7082
1002.50                   8.0708
1003.00                   8.0878
1003.50                   5.0170
1004.00                   4.0416
1004.50                   5.1076
1005.00                   4.2224
1005.50                   3.6999
1006.00                   5.4584
1006.50                   6.7158
1007.00                   5.8562
1007.50                   4.6848
1008.00                   8.3519
1008.50                  12.9428
1009.00                   8.0016
1009.50                   3.2044
1010.00                   4.7878
1010.50                   6.7868
1011.00                   5.3282
1011.50                   3.2741
1012.00                   7.1792
1012.50                  13.4592
1013.00                  10.8931
1013.50                   5.0208
1014.00                   3.2037
1014.50                   3.4437
1015.00                   5.7034
1015.50                   8.7128
1016.00                   8.4165
1016.50                   6.3544
1017.00                  13.0896
1017.50                  20.7828
1018.00                  13.3840
1018.50                  10.4769
1019.00                  16.6724
1019.50                  15.1123
1020.00                   9.8777
1020.50                  11.6152
1021.00                  19.9544
1021.50                  23.5318
1022.00                  12.1532
1022.50                   6.9983
1023.00                  12.3404
1023.50                  11.4931
1024.00                   5.5675
1024.50                   2.8401
1025.00                   2.8392
1025.50                   2.8372
1026.00                   2.8384
1026.50                   2.9269
1027.00                   3.5645
1027.50                   4.0526
1028.00                   6.2460
1028.50                  35.5500
1029.00                  63.3237
1029.50                  42.0959
1030.00                  21.3721
1030.50                  12.7551
1031.00                   8.1141
1031.50                   7.4286
1032.00                   4.2590
1032.50                   3.8609
1033.00                   4.6216
1033.50                   3.7671
1034.00                   3.2968
1034.50                   8.9574
1035.00                  15.0508
1035.50                   9.6870
1036.00                   3.7115
1036.50                   3.0044
1037.00                  20.1861
1037.50                  40.0327
1038.00                  23.0982
1038.50                   4.2463
1039.00                   3.2379
1039.50                  10.2672
1040.00                  16.7982
1040.50                   9.3941
1041.00                   2.8405
1041.50                  19.5308
1042.00                  40.4783
1042.50                  26.1477
1043.00                   6.2377
1043.50                   2.9726
1044.00                   2.8063
1044.50                   4.1377
1045.00                   9.6212
1045.50                  12.4532
1046.00                   6.7881
1046.50                  11.8102
1047.00                  25.5117
1047.50                  20.1780
1048.00                   6.8055
1048.50                   2.7529
1049.00                   2.7504
1049.50                   2.7665
1050.00                   2.7912
1050.50                   4.6672
1051.00                   7.7262
1051.50                   6.8422
1052.00                   6.6698
1052.50                  12.0749
1053.00                  12.6781
1053.50                   6.1615
1054.00                   2.7327
1054.50                   2.7310
1055.00                   2.7292
1055.50                   2.7274
1056.00                   2.7256
1056.50                   2.7326
1057.00                   3.8412
1057.50                   5.0586
1058.00                   4.3193
1058.50                   5.4738
1059.00                   7.0354
1059.50                   4.6269
1060.00                   2.7288
1060.50                   2.7245
1061.00                   2.7128
1061.50                   2.7056
1062.00                   2.7036
1062.50                   2.7014
1063.00                   2.6994
1063.50                   2.7616
1064.00                   3.1147
1064.50                   3.3615
1065.00                   3.6024
1065.50                   3.9693
1066.00                   3.3461
1066.50                   2.7147
1067.00                   2.6842
1067.50                   2.6809
1068.00                   2.8364
1068.50                   3.8504
1069.00                   5.1205
1069.50                   7.1146
1070.00                   9.4418
1070.50                   8.8758
1071.00                  12.3075
1071.50                  16.3763
1072.00                  12.2296
1072.50                  17.6805
1073.00                  27.7217
1073.50                  19.0105
1074.00                  10.4615
1074.50                  14.4617
1075.00                  25.8142
1075.50                  32.6260
1076.00                  15.8530
1076.50                   2.7516
1077.00                   8.0479
1077.50                  13.5802
1078.00                   8.1896
1078.50                   2.8077
1079.00                   2.6557
1079.50                   2.6691
1080.00                   2.6711
1080.50                   2.6739
1081.00                   2.6485
1081.50                   2.6250
1082.00                   2.6272
1082.50                   8.0736
1083.00                  51.2318
1083.50                  86.0516
1084.00                  57.0552
1084.50                  32.4450
1085.00                  17.1445
1085.50                   8.6773
1086.00                  12.4876
1086.50                   7.1661
1087.00                   2.9447
1087.50                   4.4587
1088.00                   5.5320
1088.50                   3.8972
1089.00                   4.0641
1089.50                  12.5921
1090.00                  18.8421
1090.50                  10.0911
1091.00                   2.8813
1091.50                   2.5959
1092.00                  25.0261
1092.50                  53.3163
1093.00                  36.3260
1093.50                   8.3290
1094.00                   2.6297
1094.50                  11.2102
1095.00                  22.2038
1095.50                  15.2783
1096.00                   4.4581
1096.50                   2.8480
1097.00                  31.9148
1097.50                  63.0098
1098.00                  33.1161
1098.50                   3.7417
1099.00                   2.5256
1099.50                   2.5006
1100.00                   3.1176
