# sky background 0.3-1.0um
# DARK optical sky - 50%ile conditions (day 7)
# AM=2.0
#
#derived from sky spectrum with constant slope to match assumed photometric background
#increasingly poor model at very bright sky (day14);  patched to near-IR background at 920nm
#
#1 March 2001 : Phil Puxley

#nm         phot/s/nm/arcsec^2/m^2
320.00                    0.0000
349.99                    0.0000
350.17                    0.8370
350.43                    0.8369
350.70                    0.8368
350.96                    0.8367
351.23                    0.8366
351.49                    0.8365
351.76                    0.8364
352.02                    0.8363
352.29                    0.8362
352.55                    0.8361
352.82                    0.8360
353.08                    0.8359
353.35                    0.8358
353.62                    0.8357
353.88                    0.8356
354.15                    0.8355
354.41                    0.8354
354.68                    0.8353
354.94                    0.8352
355.21                    0.8351
355.47                    0.8350
355.74                    0.8349
356.00                    0.8347
356.27                    0.8346
356.53                    0.8345
356.80                    0.8344
357.07                    0.8343
357.33                    0.8342
357.60                    0.8341
357.86                    0.8340
358.13                    0.8339
358.39                    0.8338
358.66                    0.8337
358.92                    0.8336
359.19                    0.8335
359.45                    0.8334
359.72                    0.8333
359.98                    0.8332
360.25                    0.8331
360.51                    0.8330
360.78                    0.8329
361.05                    0.8328
361.31                    0.8327
361.58                    0.8326
361.84                    0.8325
362.11                    0.8324
362.37                    0.8323
362.64                    0.8322
362.90                    0.8321
363.17                    0.8320
363.43                    0.8318
363.70                    0.8317
363.96                    0.8316
364.23                    0.8315
364.49                    0.8314
364.76                    0.8313
365.03                    0.8312
365.29                    0.8311
365.56                    0.8310
365.82                    0.8309
366.09                    0.8308
366.35                    0.8307
366.62                    0.8306
366.88                    0.8305
367.15                    0.8304
367.41                    0.8303
367.68                    0.8302
367.94                    0.8301
368.21                    0.8300
368.47                    0.8299
368.74                    0.8298
369.01                    0.8297
369.27                    0.8296
369.54                    0.8295
369.80                    0.8294
370.07                    0.8293
370.33                    0.8292
370.60                    0.8291
370.86                    0.8289
371.13                    0.8288
371.39                    0.8287
371.66                    0.8286
371.92                    0.8285
372.19                    0.8284
372.45                    0.8283
372.72                    0.8282
372.99                    0.8281
373.25                    0.8280
373.52                    0.8279
373.78                    0.8278
374.05                    0.8277
374.31                    0.8276
374.58                    0.8275
374.84                    0.8274
375.11                    0.8273
375.37                    0.8272
375.64                    0.8271
375.90                    0.8270
376.17                    0.8269
376.43                    0.8268
376.70                    0.8267
376.97                    0.8266
377.23                    0.8265
377.50                    0.8264
377.76                    0.8263
378.03                    0.8262
378.29                    0.8261
378.56                    0.8259
378.82                    0.8258
379.09                    0.8257
379.35                    0.8256
379.62                    0.8255
379.88                    0.8254
380.15                    0.8253
380.41                    0.8252
380.68                    0.8251
380.95                    0.8250
381.21                    0.8249
381.48                    0.8248
381.74                    0.8247
382.01                    0.8246
382.27                    0.8245
382.54                    0.8244
382.80                    0.8243
383.07                    0.8242
383.33                    0.8241
383.60                    0.8240
383.86                    0.8239
384.13                    0.8238
384.40                    0.8237
384.66                    0.8236
384.93                    0.8235
385.19                    0.8234
385.46                    0.8233
385.72                    0.8232
385.99                    0.8231
386.25                    0.8230
386.52                    0.8229
386.78                    0.8228
387.05                    0.8227
387.31                    0.8226
387.58                    0.8225
387.84                    0.8224
388.11                    0.8223
388.38                    0.8223
388.64                    0.8222
388.91                    0.8221
389.17                    0.8220
389.44                    0.8219
389.70                    0.8219
389.97                    0.8218
390.23                    0.8217
390.50                    0.8217
390.76                    0.8216
391.03                    0.8215
391.29                    0.8215
391.56                    0.8214
391.82                    0.8214
392.09                    0.8213
392.36                    0.8212
392.62                    0.8212
392.89                    0.8211
393.15                    0.8211
393.42                    0.8210
393.68                    0.8209
393.95                    0.8209
394.21                    0.8208
394.48                    0.8208
394.74                    0.8207
395.01                    0.8206
395.27                    0.8206
395.54                    0.8205
395.80                    0.8205
396.07                    0.8204
396.34                    0.8203
396.60                    0.8203
396.87                    0.8202
397.13                    0.8201
397.40                    0.8201
397.66                    0.8200
397.93                    0.8199
398.19                    0.8199
398.46                    0.8198
398.72                    0.8197
398.99                    0.8197
399.25                    0.8196
399.52                    0.8195
399.78                    0.8195
400.05                    0.8193
400.32                    0.8193
400.58                    0.8193
400.85                    0.8192
401.11                    0.8191
401.38                    0.8190
401.64                    0.8190
401.91                    0.8189
402.17                    0.8188
402.44                    0.8188
402.70                    0.8187
402.97                    0.8186
403.23                    0.8185
403.50                    0.8185
403.76                    0.8184
404.03                    0.8183
404.30                    0.8183
404.56                    0.8182
404.83                    0.8181
405.09                    0.8181
405.36                    0.8180
405.62                    0.8179
405.89                    0.8179
406.15                    0.8178
406.42                    0.8177
406.68                    0.8177
406.95                    0.8176
407.21                    0.8176
407.48                    0.8175
407.74                    0.8175
408.01                    0.8174
408.28                    0.8173
408.54                    0.8173
408.81                    0.8172
409.07                    0.8172
409.34                    0.8171
409.60                    0.8171
409.87                    0.8171
410.13                    0.8170
410.40                    0.8170
410.66                    0.8170
410.93                    0.8170
411.19                    0.8169
411.46                    0.8169
411.73                    0.8169
411.99                    0.8169
412.26                    0.8168
412.52                    0.8168
412.79                    0.8168
413.05                    0.8168
413.32                    0.8167
413.58                    0.8167
413.85                    0.8167
414.11                    0.8167
414.38                    0.8166
414.64                    0.8166
414.91                    0.8166
415.17                    0.8165
415.44                    0.8165
415.71                    0.8165
415.97                    0.8164
416.24                    0.8164
416.50                    0.8164
416.77                    0.8163
417.03                    0.8163
417.30                    0.8163
417.56                    0.8162
417.83                    0.8162
418.09                    0.8161
418.36                    0.8161
418.62                    0.8160
418.89                    0.8160
419.15                    0.8159
419.42                    0.8159
419.69                    0.8158
419.95                    0.8158
420.22                    0.8157
420.48                    0.8157
420.75                    0.8156
421.01                    0.8155
421.28                    0.8154
421.54                    0.8154
421.81                    0.8153
422.07                    0.8152
422.34                    0.8152
422.60                    0.8151
422.87                    0.8150
423.13                    0.8150
423.40                    0.8149
423.67                    0.8148
423.93                    0.8147
424.20                    0.8147
424.46                    0.8146
424.73                    0.8145
424.99                    0.8145
425.26                    0.8144
425.52                    0.8143
425.79                    0.8143
426.05                    0.8142
426.32                    0.8141
426.58                    0.8141
426.85                    0.8140
427.11                    0.8139
427.38                    0.8139
427.65                    0.8138
427.91                    0.8138
428.18                    0.8137
428.44                    0.8136
428.71                    0.8136
428.97                    0.8135
429.24                    0.8135
429.50                    0.8134
429.77                    0.8133
430.03                    0.8133
430.30                    0.8132
430.56                    0.8132
430.83                    0.8131
431.09                    0.8131
431.36                    0.8131
431.63                    0.8130
431.89                    0.8130
432.16                    0.8129
432.42                    0.8129
432.69                    0.8128
432.95                    0.8128
433.22                    0.8127
433.48                    0.8127
433.75                    0.8127
434.01                    0.8126
434.28                    0.8126
434.54                    0.8125
434.81                    0.8125
435.07                    0.8124
435.34                    0.8124
435.61                    0.8124
435.87                    0.8123
436.14                    0.8123
436.40                    0.8123
436.67                    0.8122
436.93                    0.8122
437.20                    0.8122
437.46                    0.8121
437.73                    0.8121
437.99                    0.8121
438.26                    0.8121
438.52                    0.8120
438.79                    0.8120
439.05                    0.8120
439.32                    0.8120
439.59                    0.8120
439.85                    0.8119
440.12                    0.8119
440.38                    0.8119
440.65                    0.8120
440.91                    0.8120
441.18                    0.8120
441.44                    0.8120
441.71                    0.8120
441.97                    0.8120
442.24                    0.8120
442.50                    0.8120
442.77                    0.8120
443.04                    0.8120
443.30                    0.8120
443.57                    0.8120
443.83                    0.8120
444.10                    0.8120
444.36                    0.8120
444.63                    0.8120
444.89                    0.8120
445.16                    0.8120
445.42                    0.8120
445.69                    0.8120
445.95                    0.8120
446.22                    0.8120
446.48                    0.8120
446.75                    0.8120
447.02                    0.8120
447.28                    0.8120
447.55                    0.8119
447.81                    0.8119
448.08                    0.8119
448.34                    0.8119
448.61                    0.8119
448.87                    0.8119
449.14                    0.8119
449.40                    0.8118
449.67                    0.8118
449.93                    0.8118
450.20                    0.8118
450.46                    0.8117
450.73                    0.8117
451.00                    0.8116
451.26                    0.8116
451.53                    0.8116
451.79                    0.8115
452.06                    0.8115
452.32                    0.8114
452.59                    0.8114
452.85                    0.8114
453.12                    0.8113
453.38                    0.8113
453.65                    0.8112
453.91                    0.8112
454.18                    0.8112
454.44                    0.8111
454.71                    0.8111
454.98                    0.8110
455.24                    0.8110
455.51                    0.8110
455.77                    0.8109
456.04                    0.8109
456.30                    0.8109
456.57                    0.8108
456.83                    0.8108
457.10                    0.8108
457.36                    0.8107
457.63                    0.8107
457.89                    0.8107
458.16                    0.8106
458.42                    0.8106
458.69                    0.8106
458.96                    0.8105
459.22                    0.8105
459.49                    0.8105
459.75                    0.8104
460.02                    0.8104
460.28                    0.8104
460.55                    0.8104
460.81                    0.8104
461.08                    0.8103
461.34                    0.8103
461.61                    0.8103
461.87                    0.8103
462.14                    0.8103
462.40                    0.8103
462.67                    0.8102
462.94                    0.8102
463.20                    0.8102
463.47                    0.8102
463.73                    0.8102
464.00                    0.8102
464.26                    0.8102
464.53                    0.8101
464.79                    0.8101
465.06                    0.8101
465.32                    0.8101
465.59                    0.8101
465.85                    0.8101
466.12                    0.8101
466.38                    0.8101
466.65                    0.8101
466.92                    0.8101
467.18                    0.8101
467.45                    0.8101
467.71                    0.8101
467.98                    0.8101
468.24                    0.8101
468.51                    0.8101
468.77                    0.8101
469.04                    0.8101
469.30                    0.8101
469.57                    0.8102
469.83                    0.8102
470.10                    0.8102
470.37                    0.8103
470.63                    0.8103
470.90                    0.8103
471.16                    0.8104
471.43                    0.8104
471.69                    0.8105
471.96                    0.8105
472.22                    0.8106
472.49                    0.8106
472.75                    0.8106
473.02                    0.8107
473.28                    0.8107
473.55                    0.8107
473.81                    0.8108
474.08                    0.8108
474.35                    0.8109
474.61                    0.8109
474.88                    0.8109
475.14                    0.8109
475.41                    0.8110
475.67                    0.8110
475.94                    0.8110
476.20                    0.8110
476.47                    0.8111
476.73                    0.8111
477.00                    0.8111
477.26                    0.8111
477.53                    0.8111
477.79                    0.8111
478.06                    0.8112
478.33                    0.8112
478.59                    0.8112
478.86                    0.8112
479.12                    0.8112
479.39                    0.8111
479.65                    0.8111
479.92                    0.8111
480.18                    0.8111
480.45                    0.8110
480.71                    0.8110
480.98                    0.8110
481.24                    0.8109
481.51                    0.8109
481.77                    0.8108
482.04                    0.8108
482.31                    0.8107
482.57                    0.8107
482.84                    0.8106
483.10                    0.8106
483.37                    0.8105
483.63                    0.8105
483.90                    0.8105
484.16                    0.8104
484.43                    0.8104
484.69                    0.8103
484.96                    0.8103
485.22                    0.8102
485.49                    0.8102
485.75                    0.8102
486.02                    0.8101
486.29                    0.8101
486.55                    0.8100
486.82                    0.8100
487.08                    0.8100
487.35                    0.8099
487.61                    0.8099
487.88                    0.8099
488.14                    0.8098
488.41                    0.8098
488.67                    0.8098
488.94                    0.8097
489.20                    0.8097
489.47                    0.8097
489.73                    0.8096
490.00                    0.8096
490.27                    0.8096
490.53                    0.8096
490.80                    0.8096
491.06                    0.8096
491.33                    0.8096
491.59                    0.8095
491.86                    0.8095
492.12                    0.8095
492.39                    0.8095
492.65                    0.8095
492.92                    0.8095
493.18                    0.8095
493.45                    0.8095
493.71                    0.8095
493.98                    0.8094
494.25                    0.8094
494.51                    0.8094
494.78                    0.8094
495.04                    0.8094
495.31                    0.8094
495.57                    0.8094
495.84                    0.8094
496.10                    0.8094
496.37                    0.8094
496.63                    0.8094
496.90                    0.8093
497.16                    0.8093
497.43                    0.8093
497.70                    0.8093
497.96                    0.8093
498.23                    0.8093
498.49                    0.8093
498.76                    0.8093
499.02                    0.8093
499.29                    0.8093
499.55                    0.8093
499.82                    0.8093
500.08                    0.8093
500.35                    0.8093
500.61                    0.8093
500.88                    0.8093
501.14                    0.8093
501.41                    0.8093
501.68                    0.8093
501.94                    0.8093
502.21                    0.8093
502.47                    0.8093
502.74                    0.8093
503.00                    0.8093
503.27                    0.8094
503.53                    0.8094
503.80                    0.8094
504.06                    0.8094
504.33                    0.8094
504.59                    0.8094
504.86                    0.8094
505.12                    0.8094
505.39                    0.8094
505.66                    0.8094
505.92                    0.8094
506.19                    0.8094
506.45                    0.8094
506.72                    0.8094
506.98                    0.8094
507.25                    0.8094
507.51                    0.8095
507.78                    0.8095
508.04                    0.8095
508.31                    0.8095
508.57                    0.8095
508.84                    0.8095
509.10                    0.8095
509.37                    0.8095
509.64                    0.8095
509.90                    0.8096
510.17                    0.8096
510.43                    0.8096
510.70                    0.8096
510.96                    0.8102
511.23                    0.8072
511.49                    0.8112
511.76                    0.8133
512.02                    0.8127
512.29                    0.8020
512.55                    0.7893
512.82                    0.7897
513.08                    0.8019
513.35                    0.8091
513.62                    0.8055
513.88                    0.7981
514.15                    0.8001
514.41                    0.8013
514.68                    0.8036
514.94                    0.7996
515.21                    0.7975
515.47                    0.7919
515.74                    0.7893
516.00                    0.7911
516.27                    0.7841
516.53                    0.7783
516.80                    0.7740
517.06                    0.7881
517.33                    0.7943
517.60                    0.8035
517.86                    0.7910
518.13                    0.7968
518.39                    0.7980
518.66                    0.8148
518.92                    0.8092
519.19                    0.8205
519.45                    0.9279
519.72                    1.0559
519.98                    1.0930
520.25                    0.9942
520.51                    0.8701
520.78                    0.8214
521.04                    0.8047
521.31                    0.8024
521.58                    0.8044
521.84                    0.8113
522.11                    0.8236
522.37                    0.8105
522.64                    0.7979
522.90                    0.7888
523.17                    0.7960
523.43                    0.8023
523.70                    0.8075
523.96                    0.8095
524.23                    0.8067
524.49                    0.8012
524.76                    0.7962
525.03                    0.8045
525.29                    0.8088
525.56                    0.8139
525.82                    0.8009
526.09                    0.7855
526.35                    0.7759
526.62                    0.7762
526.88                    0.7866
527.15                    0.8038
527.41                    0.8183
527.68                    0.8224
527.94                    0.8276
528.21                    0.8147
528.47                    0.8015
528.74                    0.7861
529.01                    0.7923
529.27                    0.8015
529.54                    0.8092
529.80                    0.8111
530.07                    0.8116
530.33                    0.8069
530.60                    0.8061
530.86                    0.8223
531.13                    0.8250
531.39                    0.8237
531.66                    0.8055
531.92                    0.8019
532.19                    0.7990
532.45                    0.8077
532.72                    0.8242
532.99                    0.8449
533.25                    0.8362
533.52                    0.8185
533.78                    0.7997
534.05                    0.8002
534.31                    0.8059
534.58                    0.8093
534.84                    0.8055
535.11                    0.7986
535.37                    0.7976
535.64                    0.8052
535.90                    0.8106
536.17                    0.8092
536.43                    0.8040
536.70                    0.8021
536.97                    0.8001
537.23                    0.8084
537.50                    0.8051
537.76                    0.7994
538.03                    0.7853
538.29                    0.7829
538.56                    0.7860
538.82                    0.7986
539.09                    0.7955
539.35                    0.7945
539.62                    0.7878
539.88                    0.7915
540.15                    0.7942
540.41                    0.7926
540.68                    0.8015
540.95                    0.7964
541.21                    0.8052
541.48                    0.7946
541.74                    0.8015
542.01                    0.7890
542.27                    0.7868
542.54                    0.7850
542.80                    0.7905
543.07                    0.8016
543.33                    0.8105
543.60                    0.8102
543.86                    0.8117
544.13                    0.7960
544.39                    0.8013
544.66                    0.7968
544.93                    0.8097
545.19                    0.8086
545.46                    0.8070
545.72                    0.8047
545.99                    0.8089
546.25                    0.8150
546.52                    0.8183
546.78                    0.8118
547.05                    0.7962
547.31                    0.7828
547.58                    0.7839
547.84                    0.7927
548.11                    0.7930
548.37                    0.7990
548.64                    0.8048
548.91                    0.8227
549.17                    0.8191
549.44                    0.8266
549.70                    0.8229
549.97                    0.8265
550.23                    0.8208
550.50                    0.8217
550.76                    0.8214
551.03                    0.8193
551.29                    0.8157
551.56                    0.8144
551.82                    0.8131
552.09                    0.8064
552.36                    0.7954
552.62                    0.7913
552.89                    0.7953
553.15                    0.8149
553.42                    0.8191
553.68                    0.8288
553.95                    0.8332
554.21                    0.8544
554.48                    0.8590
554.74                    0.8529
555.01                    0.8408
555.27                    0.8340
555.54                    0.8277
555.80                    0.8319
556.07                    0.8453
556.34                    0.8566
556.60                    0.8576
556.87                    0.8701
557.13                    2.8332
557.40                    5.5707
557.66                    7.4678
557.93                    5.9627
558.19                    3.2238
558.46                    1.3031
558.72                    0.8504
558.99                    0.8444
559.25                    0.8397
559.52                    0.8288
559.78                    0.8289
560.05                    0.8461
560.32                    0.8562
560.58                    0.8618
560.85                    0.8386
561.11                    0.8126
561.38                    0.8127
561.64                    0.8327
561.91                    0.8657
562.17                    0.8772
562.44                    0.8736
562.70                    0.8481
562.97                    0.8253
563.23                    0.8098
563.50                    0.8165
563.76                    0.8251
564.03                    0.8301
564.30                    0.8394
564.56                    0.8511
564.83                    0.8493
565.09                    0.8324
565.36                    0.8127
565.62                    0.8123
565.89                    0.8192
566.15                    0.8293
566.42                    0.8425
566.68                    0.8519
566.95                    0.8463
567.21                    0.8397
567.48                    0.8349
567.74                    0.8434
568.01                    0.8326
568.28                    0.8269
568.54                    0.8118
568.81                    0.8232
569.07                    0.8379
569.34                    0.8538
569.60                    0.8659
569.87                    0.8544
570.13                    0.8534
570.40                    0.8360
570.66                    0.8400
570.93                    0.8295
571.19                    0.8318
571.46                    0.8354
571.72                    0.8527
571.99                    0.8614
572.26                    0.8648
572.52                    0.8516
572.79                    0.8499
573.05                    0.8454
573.32                    0.8469
573.58                    0.8428
573.85                    0.8373
574.11                    0.8441
574.38                    0.8475
574.64                    0.8506
574.91                    0.8373
575.17                    0.8322
575.44                    0.8267
575.70                    0.8376
575.97                    0.8287
576.24                    0.8305
576.50                    0.8303
576.77                    0.8416
577.03                    0.8436
577.30                    0.8394
577.56                    0.8349
577.83                    0.8351
578.09                    0.8321
578.36                    0.8325
578.62                    0.8230
578.89                    0.8217
579.15                    0.8237
579.42                    0.8260
579.68                    0.8337
579.95                    0.8368
580.22                    0.8519
580.48                    0.8530
580.75                    0.8459
581.01                    0.8345
581.28                    0.8356
581.54                    0.8423
581.81                    0.8597
582.07                    0.8711
582.34                    0.8746
582.60                    0.8600
582.87                    0.8589
583.13                    0.8582
583.40                    0.8582
583.67                    0.8568
583.93                    0.8715
584.20                    0.9575
584.46                    0.9494
584.73                    0.9385
584.99                    0.8546
585.26                    0.8622
585.52                    0.8520
585.79                    0.8594
586.05                    0.8956
586.32                    0.9769
586.58                    1.0212
586.85                    1.0129
587.11                    0.9558
587.38                    0.9348
587.65                    0.9184
587.91                    0.9172
588.18                    0.9303
588.44                    1.4080
588.71                    1.9313
588.97                    2.3527
589.24                    2.1706
589.50                    1.8255
589.77                    1.4171
590.03                    1.1353
590.30                    0.9744
590.56                    0.9546
590.83                    0.9661
591.09                    0.9992
591.36                    1.0220
591.63                    1.0152
591.89                    0.9885
592.16                    0.9649
592.42                    0.9552
592.69                    0.9713
592.95                    1.0125
593.22                    1.0542
593.48                    1.0137
593.75                    0.9463
594.01                    0.8988
594.28                    0.9184
594.54                    0.9346
594.81                    0.9704
595.07                    1.0006
595.34                    1.0030
595.61                    0.9626
595.87                    0.9084
596.14                    0.8901
596.40                    0.8900
596.67                    0.9156
596.93                    0.9408
597.20                    0.9652
597.46                    0.9848
597.73                    0.9776
597.99                    0.9484
598.26                    0.9077
598.52                    0.8979
598.79                    0.9112
599.05                    0.9073
599.32                    0.8981
599.59                    0.8935
599.85                    0.9008
600.12                    0.9170
600.38                    0.9086
600.65                    0.9003
600.91                    0.8777
601.18                    0.8667
601.44                    0.8554
601.71                    0.8492
601.97                    0.8430
602.24                    0.8409
602.50                    0.8510
602.77                    0.8628
603.03                    0.8674
603.30                    0.8617
603.57                    0.8542
603.83                    0.8505
604.10                    0.8497
604.36                    0.8494
604.63                    0.8433
604.89                    0.8323
605.16                    0.8203
605.42                    0.8129
605.69                    0.8141
605.95                    0.8205
606.22                    0.8314
606.48                    0.8362
606.75                    0.8278
607.01                    0.8255
607.28                    0.8182
607.55                    0.8272
607.81                    0.8174
608.08                    0.8205
608.34                    0.8144
608.61                    0.8154
608.87                    0.8160
609.14                    0.8162
609.40                    0.8259
609.67                    0.8287
609.93                    0.8306
610.20                    0.8262
610.46                    0.8291
610.73                    0.8274
611.00                    0.8253
611.26                    0.8125
611.53                    0.8114
611.79                    0.8000
612.06                    0.7969
612.32                    0.8002
612.59                    0.8050
612.85                    0.8072
613.12                    0.7971
613.38                    0.8241
613.65                    0.8504
613.91                    0.8762
614.18                    0.8617
614.44                    0.8524
614.71                    0.8295
614.98                    0.8247
615.24                    0.8477
615.51                    0.8889
615.77                    0.8927
616.04                    0.8523
616.30                    0.8281
616.57                    0.8496
616.83                    0.8818
617.10                    1.1838
617.36                    1.1736
617.63                    1.1519
617.89                    0.8322
618.16                    0.8122
618.42                    0.7991
618.69                    0.7961
618.96                    0.7937
619.22                    0.8008
619.49                    0.8022
619.75                    0.8284
620.02                    0.8557
620.28                    0.8683
620.55                    0.8463
620.81                    0.8250
621.08                    0.8239
621.34                    0.8329
621.61                    0.8576
621.87                    0.8855
622.14                    0.8849
622.40                    0.8514
622.67                    0.8285
622.94                    0.8872
623.20                    1.0454
623.47                    1.1734
623.73                    1.2028
624.00                    1.1012
624.26                    0.9991
624.53                    0.9051
624.79                    0.8585
625.06                    0.8678
625.32                    0.9667
625.59                    1.0806
625.85                    1.1146
626.12                    1.0608
626.38                    0.9886
626.65                    0.9453
626.92                    0.9147
627.18                    0.8903
627.45                    0.8858
627.71                    0.8920
627.98                    0.9052
628.24                    0.9520
628.51                    1.0333
628.77                    1.0644
629.04                    1.0587
629.30                    2.1836
629.57                    7.7932
629.83                   13.1827
630.10                   15.9792
630.36                   10.4190
630.63                    5.0628
630.90                    1.0433
631.16                    0.9297
631.43                    0.8493
631.69                    0.8883
631.96                    0.9496
632.22                    0.9594
632.49                    1.0170
632.75                    1.0492
633.02                    1.1012
633.28                    1.0023
633.55                    0.8953
633.81                    0.8166
634.08                    0.8116
634.34                    0.8504
634.61                    0.8730
634.88                    0.9012
635.14                    0.9398
635.41                    1.0100
635.67                    1.5733
635.94                    3.1755
636.20                    4.8662
636.47                    5.4238
636.73                    3.7612
637.00                    1.9691
637.26                    0.8296
637.53                    0.8403
637.79                    0.8587
638.06                    0.8730
638.33                    0.8881
638.59                    0.8900
638.86                    0.8678
639.12                    0.8285
639.39                    0.8039
639.65                    0.7930
639.92                    0.8006
640.18                    0.7978
640.45                    0.8077
640.71                    0.8010
640.98                    0.8048
641.24                    0.8018
641.51                    0.8126
641.77                    0.8284
642.04                    0.8402
642.31                    0.8325
642.57                    0.8126
642.84                    0.7997
643.10                    0.7961
643.37                    0.7881
643.63                    0.7747
643.90                    0.7696
644.16                    0.7739
644.43                    0.7849
644.69                    0.7957
644.96                    0.8126
645.22                    0.8413
645.49                    0.8512
645.75                    0.8581
646.02                    0.9174
646.29                    1.0067
646.55                    1.0869
646.82                    1.0759
647.08                    1.0002
647.35                    0.9262
647.61                    0.8596
647.88                    0.8472
648.14                    0.8291
648.41                    0.8274
648.67                    0.8099
648.94                    0.8001
649.20                    0.8009
649.47                    0.8065
649.73                    0.8151
650.00                    0.8191
650.27                    0.8461
650.53                    0.8396
650.80                    0.8283
651.06                    0.7995
651.33                    0.8059
651.59                    0.8016
651.86                    0.7969
652.12                    0.8007
652.39                    0.8090
652.65                    0.8116
652.92                    0.8117
653.18                    0.8104
653.45                    0.8172
653.71                    0.8216
653.98                    0.8306
654.25                    0.8329
654.51                    0.8217
654.78                    0.8260
655.04                    0.8827
655.31                    0.8923
655.57                    0.8924
655.84                    0.8355
656.10                    0.8268
656.37                    0.8097
656.63                    0.8767
656.90                    0.8868
657.16                    0.8940
657.43                    0.8566
657.69                    0.8467
657.96                    0.8465
658.23                    0.8133
658.49                    0.8197
658.76                    0.8144
659.02                    0.8118
659.29                    0.8115
659.55                    0.8120
659.82                    0.8126
660.08                    0.8142
660.35                    0.8147
660.61                    0.8171
660.88                    0.8112
661.14                    0.8245
661.41                    0.8233
661.67                    0.8253
661.94                    0.8131
662.21                    0.8153
662.47                    0.8345
662.74                    0.8545
663.00                    0.8537
663.27                    0.8379
663.53                    0.8281
663.80                    0.8284
664.06                    0.8250
664.33                    0.8164
664.59                    0.8185
664.86                    0.8194
665.12                    0.8227
665.39                    0.8263
665.66                    0.8294
665.92                    0.8275
666.19                    0.8234
666.45                    0.8279
666.72                    0.8282
666.98                    0.8288
667.25                    0.8224
667.51                    0.8230
667.78                    0.8254
668.04                    0.8260
668.31                    0.8265
668.57                    0.8251
668.84                    0.8257
669.10                    0.8262
669.37                    0.8269
669.64                    0.8372
669.90                    0.8403
670.17                    0.8406
670.43                    0.8461
670.70                    0.8640
670.96                    0.8925
671.23                    0.8882
671.49                    0.8838
671.76                    0.8717
672.02                    0.8654
672.29                    0.8622
672.55                    0.8513
672.82                    0.8488
673.08                    0.8380
673.35                    0.8656
673.62                    0.8661
673.88                    0.8666
674.15                    0.8375
674.41                    0.8394
674.68                    0.8409
674.94                    0.8415
675.21                    0.8409
675.47                    0.8433
675.74                    0.8427
676.00                    0.8464
676.27                    0.8459
676.53                    0.8462
676.80                    0.8555
677.06                    0.8719
677.33                    0.8726
677.60                    0.8627
677.86                    0.8453
678.13                    0.8457
678.39                    0.8444
678.66                    0.8450
678.92                    0.8662
679.19                    0.8669
679.45                    0.8713
679.72                    0.8705
679.98                    0.8708
680.25                    0.8673
680.51                    0.8485
680.78                    0.8490
681.04                    0.8495
681.31                    0.8501
681.58                    0.8506
681.84                    0.8511
682.11                    0.8517
682.37                    0.8522
682.64                    0.8720
682.90                    0.8776
683.17                    1.2183
683.43                    1.1998
683.70                    1.1954
683.96                    0.8701
684.23                    0.8706
684.49                    0.8711
684.76                    0.8569
685.02                    0.8574
685.29                    0.8580
685.56                    0.8585
685.82                    0.8590
686.09                    1.3616
686.35                    1.3626
686.62                    1.3637
686.88                    0.8717
687.15                    0.8722
687.41                    0.8727
687.68                    0.8625
687.94                    0.8810
688.21                    0.8816
688.47                    0.8832
688.74                    0.8656
689.00                    0.8692
689.27                    0.8687
689.54                    0.8722
689.80                    1.1284
690.07                    1.1294
690.33                    1.1327
690.60                    0.8734
690.86                    0.8739
691.13                    0.8691
691.39                    0.8696
691.66                    0.8824
691.92                    0.8829
692.19                    0.8834
692.45                    0.8716
692.72                    0.8721
692.99                    0.8726
693.25                    0.8815
693.52                    0.8911
693.78                    0.9049
694.05                    0.8986
694.31                    0.8914
694.58                    0.8785
694.84                    0.8914
695.11                    0.8969
695.37                    0.9167
695.64                    0.9322
695.90                    0.9425
696.17                    0.9285
696.43                    0.9029
696.70                    0.9503
696.97                    0.9560
697.23                    0.9644
697.50                    0.9058
697.76                    0.8972
698.03                    0.8867
698.29                    0.8829
698.56                    0.8903
698.82                    0.8931
699.09                    0.8936
699.35                    0.8942
699.62                    0.8965
699.88                    0.9096
700.15                    0.9055
700.41                    0.9017
700.68                    0.8895
700.95                    0.8865
701.21                    0.8869
701.48                    0.8873
701.74                    0.8877
702.01                    0.8881
702.27                    0.8885
702.54                    0.8894
702.80                    0.8931
703.07                    0.8950
703.33                    0.8950
703.60                    0.8964
703.86                    0.9377
704.13                    0.9531
704.39                    0.9496
704.66                    0.9090
704.93                    0.9064
705.19                    0.9065
705.46                    0.9055
705.72                    0.9066
705.99                    0.9196
706.25                    0.9200
706.52                    0.9110
706.78                    0.9232
707.05                    0.9437
707.31                    0.9410
707.58                    0.9267
707.84                    0.9158
708.11                    0.9163
708.37                    0.9071
708.64                    0.8989
708.91                    0.8996
709.17                    0.9000
709.44                    0.9069
709.70                    0.9086
709.97                    0.9090
710.23                    0.9026
710.50                    0.9303
710.76                    0.9412
711.03                    0.9419
711.29                    0.9134
711.56                    0.9033
711.82                    0.9036
712.09                    0.9041
712.35                    0.9045
712.62                    0.9049
712.89                    0.9110
713.15                    0.9115
713.42                    0.9119
713.68                    0.9169
713.95                    0.9174
714.21                    0.9178
714.48                    0.9080
714.74                    0.9084
715.01                    0.9089
715.27                    0.9124
715.54                    0.9217
715.80                    0.9222
716.07                    0.9196
716.33                    0.9156
716.60                    0.9161
716.87                    0.9166
717.13                    0.9125
717.40                    0.9129
717.66                    0.9169
717.93                    0.9174
718.19                    0.9179
718.46                    0.9148
718.72                    0.9152
718.99                    0.9157
719.25                    0.9162
719.52                    0.9167
719.78                    0.9171
720.05                    0.9176
720.32                    0.9181
720.58                    0.9187
720.85                    0.9192
721.11                    0.9197
721.38                    0.9202
721.64                    0.9208
721.91                    0.9213
722.17                    0.9240
722.44                    0.9245
722.70                    0.9273
722.97                    0.9256
723.23                    0.9261
723.50                    0.9244
723.76                    1.0396
724.03                    1.0404
724.30                    1.1377
724.56                    1.0356
724.83                    1.0391
725.09                    0.9427
725.36                    0.9351
725.62                    0.9327
725.89                    0.9333
726.15                    0.9296
726.42                    0.9302
726.68                    0.9389
726.95                    0.9394
727.21                    1.0339
727.48                    1.0264
727.74                    1.0271
728.01                    0.9334
728.28                    0.9403
728.54                    0.9408
728.81                    0.9437
729.07                    0.9398
729.34                    1.1203
729.60                    1.1189
729.87                    1.1179
730.13                    0.9653
730.40                    0.9664
730.66                    0.9670
730.93                    0.9668
731.19                    0.9668
731.46                    0.9950
731.72                    1.0020
731.99                    1.0026
732.26                    0.9754
732.52                    0.9424
732.79                    0.9466
733.05                    0.9471
733.32                    0.9477
733.58                    0.9445
733.85                    2.6869
734.11                    2.7038
734.38                    2.7071
734.64                    0.9656
734.91                    0.9535
735.17                    0.9540
735.44                    0.9640
735.70                    0.9636
735.97                    0.9697
736.24                    0.9555
736.50                    0.9621
736.77                    0.9569
737.03                    0.9772
737.30                    0.9743
737.56                    0.9933
737.83                    0.9782
738.09                    0.9988
738.36                    0.9812
738.62                    0.9780
738.89                    0.9563
739.15                    0.9567
739.42                    0.9566
739.68                    0.9613
739.95                    0.9696
740.22                    0.9704
740.48                    0.9670
740.75                    0.9694
741.01                    1.0067
741.28                    1.0090
741.54                    1.0309
741.81                    0.9943
742.07                    1.0013
742.34                    0.9705
742.60                    0.9945
742.87                    0.9860
743.13                    0.9945
743.40                    0.9714
743.66                    0.9882
743.93                    0.9856
744.20                    0.9886
744.46                    0.9728
744.73                    0.9733
744.99                    0.9848
745.26                    0.9853
745.52                    0.9825
745.79                    0.9832
746.05                    0.9858
746.32                    0.9980
746.58                    0.9962
746.85                    1.1848
747.11                    1.2151
747.38                    1.2049
747.64                    1.1150
747.91                    1.0870
748.18                    1.1086
748.44                    1.0115
748.71                    1.0047
748.97                    0.9834
749.24                    0.9849
749.50                    0.9931
749.77                    1.0121
750.03                    1.0257
750.30                    1.0129
750.56                    1.0123
750.83                    1.0828
751.09                    1.0859
751.36                    1.1226
751.63                    1.0424
751.89                    1.0432
752.16                    1.3712
752.42                    1.3716
752.69                    1.3795
752.95                    1.0260
753.22                    1.0431
753.48                    1.0417
753.75                    1.0696
754.01                    1.0658
754.28                    1.0602
754.54                    1.0060
754.81                    1.0145
755.07                    1.0531
755.34                    1.0620
755.61                    1.0388
755.87                    1.0052
756.14                    1.0159
756.40                    1.0291
756.67                    1.0253
756.93                    1.6581
757.20                    1.7317
757.46                    1.7312
757.73                    1.0835
757.99                    1.0040
758.26                    1.0125
758.52                    1.0092
758.79                    1.0032
759.05                    1.0007
759.32                    1.0013
759.59                    1.1978
759.85                    1.1939
760.12                    1.1946
760.38                    0.9993
760.65                    1.0000
760.91                    1.0007
761.18                    1.0096
761.44                    1.0103
761.71                    1.0225
761.97                    1.0340
762.24                    1.0347
762.50                    1.0256
762.77                    1.0074
763.03                    1.0156
763.30                    1.0146
763.57                    1.0168
763.83                    1.0101
764.10                    1.0109
764.36                    1.0388
764.63                    1.0396
764.89                    1.0404
765.16                    1.0123
765.42                    1.0131
765.69                    1.0138
765.95                    1.2157
766.22                    1.2166
766.48                    1.2175
766.75                    1.0168
767.01                    1.0216
767.28                    1.0224
767.55                    1.0232
767.81                    1.0227
768.08                    1.0235
768.34                    1.0252
768.61                    1.0232
768.87                    1.0484
769.14                    1.0482
769.40                    1.0490
769.67                    1.0613
769.93                    1.0673
770.20                    1.0681
770.46                    1.0633
770.73                    1.0788
770.99                    2.8603
771.26                    3.1994
771.53                    3.5608
771.79                    1.8167
772.06                    1.4673
772.32                    1.4540
772.59                    1.4189
772.85                    1.4085
773.12                    1.0682
773.38                    1.0690
773.65                    1.0626
773.91                    1.0424
774.18                    1.0433
774.44                    1.0476
774.71                    1.0625
774.97                    1.0828
775.24                    1.0802
775.51                    1.0629
775.77                    1.0721
776.04                    1.0730
776.30                    1.0750
776.57                    1.0479
776.83                    1.0487
777.10                    1.1127
777.36                    1.1136
777.63                    1.1145
777.89                    1.0511
778.16                    1.0565
778.42                    1.0873
778.69                    1.0991
778.96                    1.1365
779.22                    1.1109
779.49                    1.1008
779.75                    1.0607
780.02                    1.0749
780.28                    1.0757
780.55                    1.4448
780.81                    1.4288
781.08                    1.4294
781.34                    1.0834
781.61                    1.1333
781.87                    4.9914
782.14                    4.9692
782.40                    4.9190
782.67                    1.0738
782.94                    1.0747
783.20                    1.0757
783.47                    1.0706
783.73                    1.0715
784.00                    1.0725
784.26                    1.0726
784.53                    1.0735
784.79                    1.0802
785.06                    3.9237
785.32                    3.9230
785.59                    3.9166
785.85                    1.0783
786.12                    1.0792
786.38                    1.0801
786.65                    1.0810
786.92                    1.0820
787.18                    1.0830
787.45                    1.0840
787.71                    1.0850
787.98                    1.0859
788.24                    1.0869
788.51                    1.0966
788.77                    1.1862
789.04                    1.1872
789.30                    1.1796
789.57                    1.0920
789.83                    1.0930
790.10                    1.0940
790.36                    1.0950
790.63                    1.0961
790.90                    1.0990
791.16                    1.1000
791.43                    1.1010
791.69                    1.1327
791.96                    1.1337
792.22                    1.1347
792.49                    1.1034
792.75                    1.1295
793.02                    1.1306
793.28                    1.1316
793.55                    1.1077
793.81                    1.1087
794.08                    1.1104
794.34                    1.1486
794.61                    1.1752
794.88                    1.1757
795.14                    1.1448
795.41                    1.1204
795.67                    1.1215
795.94                    1.1175
796.20                    3.7756
796.47                    3.7774
796.73                    3.7794
797.00                    1.1220
797.26                    1.1278
797.53                    1.1289
797.79                    1.1301
798.06                    1.1266
798.32                    1.1278
798.59                    1.1290
798.86                    1.1391
799.12                    1.1659
799.39                    1.1671
799.65                    1.1593
799.92                    1.1362
800.18                    1.1421
800.45                    1.1434
800.71                    1.1432
800.98                    1.1398
801.24                    1.2098
801.51                    1.2111
801.77                    1.3247
802.04                    1.2661
802.30                    2.7946
802.57                    2.7868
802.84                    2.7825
803.10                    1.2556
803.37                    1.1571
803.63                    1.1662
803.90                    1.1627
804.16                    1.1628
804.43                    1.1562
804.69                    1.1965
804.96                    1.4188
805.22                    1.4334
805.49                    1.4162
805.75                    1.2302
806.02                    1.2187
806.29                    1.2118
806.55                    1.2079
806.82                    1.2411
807.08                    1.2305
807.35                    1.2272
807.61                    1.2281
807.88                    1.2702
808.14                    1.3395
808.41                    1.3110
808.67                    1.2717
808.94                    1.1804
809.20                    1.1834
809.47                    1.1997
809.73                    1.2013
810.00                    1.5316
810.27                    1.5181
810.53                    1.5568
810.80                    1.2311
811.06                    1.2481
811.33                    1.2186
811.59                    1.2283
811.86                    1.2367
812.12                    1.2340
812.39                    1.2695
812.65                    1.2559
812.92                    1.2809
813.18                    1.2405
813.45                    1.2430
813.71                    1.2461
813.98                    1.2569
814.25                    1.2591
814.51                    1.2937
814.78                    1.4868
815.04                    1.4848
815.31                    1.4528
815.57                    1.2776
815.84                    1.2733
816.10                    1.2505
816.37                    1.3273
816.63                    1.3765
816.90                    1.4100
817.16                    1.3100
817.43                    1.2656
817.69                    1.2496
817.96                    1.2538
818.23                    1.2561
818.49                    1.3587
818.76                    1.3864
819.02                    1.4178
819.29                    1.3994
819.55                    1.3670
819.82                    1.3356
820.08                    1.2387
820.35                    1.2401
820.61                    1.2607
820.88                    1.2829
821.14                    1.2941
821.41                    1.2790
821.67                    1.2666
821.94                    1.2853
822.21                    1.2899
822.47                    1.2963
822.74                    1.2972
823.00                    1.2941
823.27                    1.3051
823.53                    1.2813
823.80                    1.2812
824.06                    1.2598
824.33                    1.3078
824.59                    1.3117
824.86                    1.3381
825.12                    1.2912
825.39                    1.3163
825.65                    1.3395
825.92                    1.3945
826.19                    1.4486
826.45                    1.4187
826.72                    1.3666
826.98                    1.3307
827.25                    1.3170
827.51                    1.5275
827.78                    1.4876
828.04                    1.4894
828.31                    1.2911
828.57                    4.2138
828.84                    4.2807
829.10                    4.2922
829.37                    1.9976
829.63                    3.4697
829.90                    3.4903
830.17                    2.8582
830.43                    1.3622
830.70                    1.3328
830.96                    1.3345
831.23                    1.3205
831.49                    1.3800
831.76                    1.3817
832.02                    1.3612
832.29                    1.3047
832.55                    1.3062
832.82                    1.3078
833.08                    1.3095
833.35                    1.3111
833.62                    1.3440
833.88                    1.4032
834.15                    2.2716
834.41                    2.2575
834.68                    2.2944
834.94                    1.4279
835.21                    1.4291
835.47                    1.3385
835.74                    1.3493
836.00                    1.3369
836.27                    1.4026
836.53                    1.3954
836.80                    1.3973
837.06                    1.3587
837.33                    1.3605
837.60                    1.3633
837.86                    1.3414
838.13                    1.4321
838.39                    1.4364
838.66                    1.4384
838.92                    1.3510
839.19                    1.3519
839.45                    1.3770
839.72                    1.4263
839.98                    1.4259
840.25                    1.4044
840.51                    1.5107
840.78                    1.5735
841.04                    1.5775
841.31                    1.4963
841.58                    1.4493
841.84                    1.4795
842.11                    1.4770
842.37                    1.5309
842.64                    1.6103
842.90                    1.5596
843.17                    1.5841
843.43                    1.5031
843.70                    1.5012
843.96                    1.4202
844.23                    1.3980
844.49                    1.3937
844.76                    1.3926
845.02                    1.4225
845.29                    1.4236
845.56                    1.4258
845.82                    1.4001
846.09                    1.4022
846.35                    1.4043
846.62                    1.4419
846.88                    1.4450
847.15                    1.4472
847.41                    1.4137
847.68                    1.4149
847.94                    1.4171
848.21                    1.4193
848.47                    1.4215
848.74                    1.4237
849.00                    1.4343
849.27                    1.4365
849.54                    1.4987
849.80                    1.4926
850.07                    1.5126
850.33                    1.4819
850.60                    1.4870
850.86                    1.4717
851.13                    1.4950
851.39                    1.4966
851.66                    1.5020
851.92                    1.4898
852.19                    1.5303
852.45                    1.5297
852.72                    1.4979
852.98                    1.4599
853.25                    1.4623
853.52                    1.4646
853.78                    1.4669
854.05                    1.4693
854.31                    1.4717
854.58                    1.9054
854.84                    1.9082
855.11                    1.9110
855.37                    1.4809
855.64                    1.4833
855.90                    1.4857
856.17                    1.4881
856.43                    1.4905
856.70                    1.4929
856.96                    1.4953
857.23                    1.4978
857.50                    1.5002
857.76                    1.5027
858.03                    1.5051
858.29                    1.5076
858.56                    1.6952
858.82                    1.6979
859.09                    1.7007
859.35                    1.5574
859.62                    1.5600
859.88                    1.5625
860.15                    1.5251
860.41                    1.5277
860.68                    1.5302
860.95                    1.5328
861.21                    1.5353
861.48                    1.5379
861.74                    1.5508
862.01                    1.9622
862.27                    1.9656
862.54                    2.8244
862.80                    2.4181
863.07                    2.6607
863.33                    1.7948
863.60                    1.7978
863.86                    1.5611
864.13                    1.5637
864.39                    1.8788
864.66                    1.9704
864.93                    1.9735
865.19                    1.9905
865.46                    1.9046
865.72                    1.9076
865.99                    1.5823
866.25                    2.3599
866.52                    2.3635
866.78                    3.3508
867.05                    2.5781
867.31                    3.2980
867.58                    2.3276
867.84                    2.5840
868.11                    1.8693
868.37                    1.8606
868.64                    1.6098
868.91                    1.7107
869.17                    1.7136
869.44                    1.7166
869.70                    1.6270
869.97                    1.6297
870.23                    1.6324
870.50                    1.6314
870.76                    1.6343
871.03                    1.6371
871.29                    1.6377
871.56                    1.6406
871.82                    1.6434
872.09                    1.6463
872.35                    1.6493
872.62                    1.6522
872.89                    1.6551
873.15                    1.6581
873.42                    1.6610
873.68                    1.6640
873.95                    1.6669
874.21                    1.7376
874.48                    1.7407
874.74                    1.7902
875.01                    1.7291
875.27                    1.7322
875.54                    1.7898
875.80                    2.3088
876.07                    2.3402
876.33                    3.9348
876.60                    3.5126
876.87                    3.4879
877.13                    1.7978
877.40                    1.7083
877.66                    1.7116
877.93                    1.7145
878.19                    1.7197
878.46                    1.7533
878.72                    1.7565
878.99                    1.7552
879.25                    1.7275
879.52                    1.7306
879.78                    1.7337
880.05                    1.7368
880.31                    1.7401
880.58                    1.7433
880.85                    1.7465
881.11                    1.7497
881.38                    1.7529
881.64                    1.7562
881.91                    1.7594
882.17                    1.7940
882.44                   14.7022
882.70                   14.7337
882.97                   14.7398
883.23                    1.7930
883.50                    1.8198
883.76                    1.8111
884.03                    1.8145
884.29                    1.7889
884.56                    1.7922
884.83                    1.8397
885.09                    1.8434
885.36                    1.8466
885.62                    1.8055
885.89                    1.8085
886.15                    1.8119
886.42                    1.9255
886.68                    1.9291
886.95                    1.9327
887.21                    1.8255
887.48                    1.8289
887.74                    1.8324
888.01                    1.8357
888.27                    4.4120
888.54                    4.4203
888.81                    4.4286
889.07                    1.8497
889.34                    1.8532
889.60                    1.8567
889.87                    1.8603
890.13                    1.8667
890.40                    1.8702
890.66                    1.8738
890.93                    1.8745
891.19                    1.8780
891.46                    1.8816
891.72                    2.4026
891.99                    2.4072
892.26                    2.4118
892.52                    1.8960
892.79                    1.8997
893.05                    1.9032
893.32                    1.9067
893.58                    1.9102
893.85                    1.9138
894.11                    3.0653
894.38                    3.0714
894.64                    3.0774
894.91                    1.9517
895.17                    1.9555
895.44                    1.9593
895.70                    1.9534
895.97                    1.9572
896.24                    1.9610
896.50                    1.9512
896.77                    1.9550
897.03                    1.9588
897.30                    2.0077
897.56                    2.0184
897.83                    2.1536
898.09                    2.1199
898.36                    2.1176
898.62                    2.0051
898.89                    2.0016
899.15                    2.0051
899.42                    1.9935
899.68                    1.9974
899.95                    2.0495
900.22                    2.0779
900.48                    2.0821
900.75                    2.0373
901.01                    2.0756
901.28                    2.0853
901.54                    2.0896
901.81                    2.0381
902.07                    2.0369
902.34                    2.0410
902.60                    2.1271
902.87                    2.1316
903.13                    2.1563
903.40                    2.0927
903.66                    2.1900
903.93                    2.1741
904.20                    2.2885
904.46                    2.2085
904.73                    3.1682
904.99                    3.0745
905.26                    3.1144
905.52                    2.1560
905.79                    2.1333
906.05                    2.0968
906.32                    2.1012
906.58                    2.1055
906.85                    2.1098
907.11                    2.1142
907.38                    2.1186
907.64                    2.1229
907.91                    2.1274
908.18                    2.2315
908.44                    2.2361
908.71                    2.2941
908.97                    2.7335
909.24                    2.7647
909.50                    2.7176
909.77                    2.2033
910.03                    2.4753
910.30                    2.4812
910.56                    2.4659
910.83                    2.1758
911.09                    2.2050
911.36                    2.2225
911.62                    2.2273
911.89                    2.2071
912.16                    2.2580
912.42                    2.4359
912.69                    2.4415
912.95                    2.3870
913.22                    2.2634
913.48                    2.2682
913.75                    2.2907
914.01                    2.3195
914.28                    2.3294
914.54                    2.3640
914.81                    2.3010
915.07                    2.3770
915.34                    2.3343
915.60                    2.4102
915.87                    5.7409
916.14                    5.9289
916.40                    5.8791
916.67                    2.4465
916.93                    2.3241
917.20                    2.3278
917.46                    2.3542
917.73                    2.4102
917.99                    2.4498
918.26                    2.5584
918.52                    2.7101
918.79                    2.7708
919.05                    2.6596
919.32                    2.4699
919.59                    2.5495
919.85                    2.6260
920.00                    3.1782
920.50                    3.2047
921.00                    3.1983
921.50                    3.1841
922.00                    3.1883
922.50                    3.2101
923.00                    3.2061
923.50                    3.1839
924.00                    3.1657
924.50                    3.1568
925.00                    3.1536
925.50                    3.1648
926.00                    3.1674
926.50                    3.1671
927.00                    3.1744
927.50                    3.1405
928.00                    3.0765
928.50                    3.0532
929.00                    3.0498
929.50                    3.0059
930.00                    3.0544
930.50                    4.9400
931.00                    8.5605
931.50                    9.9495
932.00                    6.8479
932.50                    7.5531
933.00                    5.4233
933.50                    3.4296
934.00                    3.5763
934.50                    2.7234
935.00                    2.4193
935.50                    2.4109
936.00                    2.3064
936.50                    2.4533
937.00                    3.5253
937.50                    8.0742
938.00                   11.2624
938.50                    8.0550
939.00                    6.2922
939.50                    4.8971
940.00                    3.8145
940.50                    4.3889
941.00                    3.5149
941.50                    3.3990
942.00                    4.7174
942.50                    4.7783
943.00                    3.0164
943.50                    4.6493
944.00                    7.5096
944.50                    6.0975
945.00                    4.2823
945.50                    3.9048
946.00                    4.8520
946.50                    3.9514
947.00                    3.1277
947.50                    6.9658
948.00                   10.6846
948.50                    5.8001
949.00                    2.7964
949.50                    2.6307
950.00                    3.4586
950.50                    4.6299
951.00                    4.1236
951.50                    4.9905
952.00                    7.1626
952.50                    6.2391
953.00                    3.6647
953.50                    2.7828
954.00                    2.7463
954.50                    2.6496
955.00                    3.4441
955.50                    4.1925
956.00                    3.4546
956.50                    4.4326
957.00                    5.8301
957.50                    4.6120
958.00                    2.8389
958.50                    2.7241
959.00                    2.6574
959.50                    2.6358
960.00                    2.7617
960.50                    3.2002
961.00                    3.6061
961.50                    3.4611
962.00                    3.8244
962.50                    4.1937
963.00                    3.4909
963.50                    2.8837
964.00                    2.7945
964.50                    2.7814
965.00                    2.8658
965.50                    3.0701
966.00                    3.2007
966.50                    3.5340
967.00                    4.1846
967.50                    4.1490
968.00                    5.0669
968.50                    6.1462
969.00                    5.2227
969.50                    5.7402
970.00                    7.8222
970.50                    6.5383
971.00                    5.0611
971.50                    6.8472
972.00                    9.0524
972.50                    8.0030
973.00                    4.6230
973.50                    4.1136
974.00                    5.2979
974.50                    4.3236
975.00                    3.1549
975.50                    2.9561
976.00                    2.8811
976.50                    2.9031
977.00                    2.9512
977.50                    2.9681
978.00                    2.9422
978.50                    4.8892
979.00                   15.1683
979.50                   22.9525
980.00                   16.5082
980.50                    7.9035
981.00                    5.6828
981.50                    5.1421
982.00                    4.0142
982.50                    3.2852
983.00                    3.5199
983.50                    3.2758
984.00                    3.0120
984.50                    4.7526
985.00                    6.9263
985.50                    5.3919
986.00                    3.2918
986.50                    3.1692
987.00                    9.8719
987.50                   16.6750
988.00                    9.6859
988.50                    3.0723
989.00                    4.2712
989.50                    6.8559
990.00                    6.7649
990.50                    4.1834
991.00                    6.7444
991.50                   14.0158
992.00                   13.4415
992.50                    6.2011
993.00                    2.9554
993.50                    3.0986
994.00                    6.8237
994.50                   15.8101
995.00                   18.0216
995.50                   13.3385
996.00                   16.2343
996.50                   16.1677
997.00                    8.4666
997.50                    5.1431
998.00                    4.0829
998.50                    3.0120
999.00                    2.9406
999.50                    3.3542
1000.00                   4.3640
1000.50                   4.6209
1001.00                  12.4008
1001.50                  21.9929
1002.00                  14.7082
1002.50                   8.0708
1003.00                   8.0878
1003.50                   5.0170
1004.00                   4.0416
1004.50                   5.1076
1005.00                   4.2224
1005.50                   3.6999
1006.00                   5.4584
1006.50                   6.7158
1007.00                   5.8562
1007.50                   4.6848
1008.00                   8.3519
1008.50                  12.9428
1009.00                   8.0016
1009.50                   3.2044
1010.00                   4.7878
1010.50                   6.7868
1011.00                   5.3282
1011.50                   3.2741
1012.00                   7.1792
1012.50                  13.4592
1013.00                  10.8931
1013.50                   5.0208
1014.00                   3.2037
1014.50                   3.4437
1015.00                   5.7034
1015.50                   8.7128
1016.00                   8.4165
1016.50                   6.3544
1017.00                  13.0896
1017.50                  20.7828
1018.00                  13.3840
1018.50                  10.4769
1019.00                  16.6724
1019.50                  15.1123
1020.00                   9.8777
1020.50                  11.6152
1021.00                  19.9544
1021.50                  23.5318
1022.00                  12.1532
1022.50                   6.9983
1023.00                  12.3404
1023.50                  11.4931
1024.00                   5.5675
1024.50                   2.8401
1025.00                   2.8392
1025.50                   2.8372
1026.00                   2.8384
1026.50                   2.9269
1027.00                   3.5645
1027.50                   4.0526
1028.00                   6.2460
1028.50                  35.5500
1029.00                  63.3237
1029.50                  42.0959
1030.00                  21.3721
1030.50                  12.7551
1031.00                   8.1141
1031.50                   7.4286
1032.00                   4.2590
1032.50                   3.8609
1033.00                   4.6216
1033.50                   3.7671
1034.00                   3.2968
1034.50                   8.9574
1035.00                  15.0508
1035.50                   9.6870
1036.00                   3.7115
1036.50                   3.0044
1037.00                  20.1861
1037.50                  40.0327
1038.00                  23.0982
1038.50                   4.2463
1039.00                   3.2379
1039.50                  10.2672
1040.00                  16.7982
1040.50                   9.3941
1041.00                   2.8405
1041.50                  19.5308
1042.00                  40.4783
1042.50                  26.1477
1043.00                   6.2377
1043.50                   2.9726
1044.00                   2.8063
1044.50                   4.1377
1045.00                   9.6212
1045.50                  12.4532
1046.00                   6.7881
1046.50                  11.8102
1047.00                  25.5117
1047.50                  20.1780
1048.00                   6.8055
1048.50                   2.7529
1049.00                   2.7504
1049.50                   2.7665
1050.00                   2.7912
1050.50                   4.6672
1051.00                   7.7262
1051.50                   6.8422
1052.00                   6.6698
1052.50                  12.0749
1053.00                  12.6781
1053.50                   6.1615
1054.00                   2.7327
1054.50                   2.7310
1055.00                   2.7292
1055.50                   2.7274
1056.00                   2.7256
1056.50                   2.7326
1057.00                   3.8412
1057.50                   5.0586
1058.00                   4.3193
1058.50                   5.4738
1059.00                   7.0354
1059.50                   4.6269
1060.00                   2.7288
1060.50                   2.7245
1061.00                   2.7128
1061.50                   2.7056
1062.00                   2.7036
1062.50                   2.7014
1063.00                   2.6994
1063.50                   2.7616
1064.00                   3.1147
1064.50                   3.3615
1065.00                   3.6024
1065.50                   3.9693
1066.00                   3.3461
1066.50                   2.7147
1067.00                   2.6842
1067.50                   2.6809
1068.00                   2.8364
1068.50                   3.8504
1069.00                   5.1205
1069.50                   7.1146
1070.00                   9.4418
1070.50                   8.8758
1071.00                  12.3075
1071.50                  16.3763
1072.00                  12.2296
1072.50                  17.6805
1073.00                  27.7217
1073.50                  19.0105
1074.00                  10.4615
1074.50                  14.4617
1075.00                  25.8142
1075.50                  32.6260
1076.00                  15.8530
1076.50                   2.7516
1077.00                   8.0479
1077.50                  13.5802
1078.00                   8.1896
1078.50                   2.8077
1079.00                   2.6557
1079.50                   2.6691
1080.00                   2.6711
1080.50                   2.6739
1081.00                   2.6485
1081.50                   2.6250
1082.00                   2.6272
1082.50                   8.0736
1083.00                  51.2318
1083.50                  86.0516
1084.00                  57.0552
1084.50                  32.4450
1085.00                  17.1445
1085.50                   8.6773
1086.00                  12.4876
1086.50                   7.1661
1087.00                   2.9447
1087.50                   4.4587
1088.00                   5.5320
1088.50                   3.8972
1089.00                   4.0641
1089.50                  12.5921
1090.00                  18.8421
1090.50                  10.0911
1091.00                   2.8813
1091.50                   2.5959
1092.00                  25.0261
1092.50                  53.3163
1093.00                  36.3260
1093.50                   8.3290
1094.00                   2.6297
1094.50                  11.2102
1095.00                  22.2038
1095.50                  15.2783
1096.00                   4.4581
1096.50                   2.8480
1097.00                  31.9148
1097.50                  63.0098
1098.00                  33.1161
1098.50                   3.7417
1099.00                   2.5256
1099.50                   2.5006
1100.00                   3.1176
