# sky background 0.3-1.0um
# GREY optical sky - 80%ile conditions (day 11)
# AM=2.0
#
#derived from sky spectrum with constant slope to match assumed photometric background
#increasingly poor model at very bright sky (day14);  patched to near-IR background at 920nm
#
#1 March 2001 : Phil Puxley

#nm         phot/s/nm/arcsec^2/m^2
320.00                    0.0000
349.99                    0.0000
350.17                    3.1687
350.43                    3.1679
350.70                    3.1670
350.96                    3.1661
351.23                    3.1652
351.49                    3.1643
351.76                    3.1634
352.02                    3.1625
352.29                    3.1616
352.55                    3.1607
352.82                    3.1599
353.08                    3.1590
353.35                    3.1581
353.62                    3.1572
353.88                    3.1563
354.15                    3.1554
354.41                    3.1545
354.68                    3.1536
354.94                    3.1527
355.21                    3.1519
355.47                    3.1510
355.74                    3.1501
356.00                    3.1492
356.27                    3.1483
356.53                    3.1474
356.80                    3.1465
357.07                    3.1456
357.33                    3.1447
357.60                    3.1439
357.86                    3.1430
358.13                    3.1421
358.39                    3.1412
358.66                    3.1403
358.92                    3.1394
359.19                    3.1385
359.45                    3.1376
359.72                    3.1367
359.98                    3.1359
360.25                    3.1350
360.51                    3.1341
360.78                    3.1332
361.05                    3.1323
361.31                    3.1314
361.58                    3.1305
361.84                    3.1296
362.11                    3.1287
362.37                    3.1279
362.64                    3.1270
362.90                    3.1261
363.17                    3.1252
363.43                    3.1243
363.70                    3.1234
363.96                    3.1225
364.23                    3.1216
364.49                    3.1207
364.76                    3.1199
365.03                    3.1190
365.29                    3.1181
365.56                    3.1172
365.82                    3.1163
366.09                    3.1154
366.35                    3.1145
366.62                    3.1136
366.88                    3.1127
367.15                    3.1119
367.41                    3.1110
367.68                    3.1101
367.94                    3.1092
368.21                    3.1083
368.47                    3.1074
368.74                    3.1065
369.01                    3.1056
369.27                    3.1048
369.54                    3.1039
369.80                    3.1030
370.07                    3.1021
370.33                    3.1012
370.60                    3.1003
370.86                    3.0994
371.13                    3.0985
371.39                    3.0976
371.66                    3.0968
371.92                    3.0959
372.19                    3.0950
372.45                    3.0941
372.72                    3.0932
372.99                    3.0923
373.25                    3.0914
373.52                    3.0905
373.78                    3.0896
374.05                    3.0888
374.31                    3.0879
374.58                    3.0870
374.84                    3.0861
375.11                    3.0852
375.37                    3.0843
375.64                    3.0834
375.90                    3.0825
376.17                    3.0816
376.43                    3.0808
376.70                    3.0799
376.97                    3.0790
377.23                    3.0781
377.50                    3.0772
377.76                    3.0763
378.03                    3.0754
378.29                    3.0745
378.56                    3.0736
378.82                    3.0728
379.09                    3.0719
379.35                    3.0710
379.62                    3.0701
379.88                    3.0692
380.15                    3.0683
380.41                    3.0674
380.68                    3.0665
380.95                    3.0656
381.21                    3.0648
381.48                    3.0639
381.74                    3.0630
382.01                    3.0621
382.27                    3.0612
382.54                    3.0603
382.80                    3.0594
383.07                    3.0585
383.33                    3.0576
383.60                    3.0568
383.86                    3.0559
384.13                    3.0550
384.40                    3.0541
384.66                    3.0532
384.93                    3.0523
385.19                    3.0514
385.46                    3.0506
385.72                    3.0497
385.99                    3.0488
386.25                    3.0479
386.52                    3.0470
386.78                    3.0461
387.05                    3.0453
387.31                    3.0444
387.58                    3.0435
387.84                    3.0426
388.11                    3.0418
388.38                    3.0409
388.64                    3.0400
388.91                    3.0392
389.17                    3.0383
389.44                    3.0374
389.70                    3.0366
389.97                    3.0357
390.23                    3.0349
390.50                    3.0340
390.76                    3.0332
391.03                    3.0323
391.29                    3.0315
391.56                    3.0306
391.82                    3.0298
392.09                    3.0290
392.36                    3.0281
392.62                    3.0273
392.89                    3.0264
393.15                    3.0256
393.42                    3.0247
393.68                    3.0239
393.95                    3.0230
394.21                    3.0222
394.48                    3.0213
394.74                    3.0205
395.01                    3.0197
395.27                    3.0188
395.54                    3.0180
395.80                    3.0171
396.07                    3.0163
396.34                    3.0154
396.60                    3.0146
396.87                    3.0137
397.13                    3.0129
397.40                    3.0120
397.66                    3.0112
397.93                    3.0103
398.19                    3.0095
398.46                    3.0086
398.72                    3.0078
398.99                    3.0069
399.25                    3.0061
399.52                    3.0052
399.78                    3.0043
400.05                    3.0034
400.32                    3.0026
400.58                    3.0018
400.85                    3.0009
401.11                    3.0001
401.38                    2.9992
401.64                    2.9983
401.91                    2.9975
402.17                    2.9966
402.44                    2.9958
402.70                    2.9949
402.97                    2.9941
403.23                    2.9932
403.50                    2.9923
403.76                    2.9915
404.03                    2.9906
404.30                    2.9898
404.56                    2.9889
404.83                    2.9881
405.09                    2.9872
405.36                    2.9864
405.62                    2.9855
405.89                    2.9847
406.15                    2.9838
406.42                    2.9830
406.68                    2.9821
406.95                    2.9813
407.21                    2.9805
407.48                    2.9796
407.74                    2.9788
408.01                    2.9779
408.28                    2.9771
408.54                    2.9763
408.81                    2.9754
409.07                    2.9746
409.34                    2.9738
409.60                    2.9729
409.87                    2.9721
410.13                    2.9713
410.40                    2.9705
410.66                    2.9697
410.93                    2.9689
411.19                    2.9680
411.46                    2.9672
411.73                    2.9664
411.99                    2.9656
412.26                    2.9648
412.52                    2.9640
412.79                    2.9632
413.05                    2.9624
413.32                    2.9616
413.58                    2.9608
413.85                    2.9599
414.11                    2.9591
414.38                    2.9583
414.64                    2.9575
414.91                    2.9567
415.17                    2.9559
415.44                    2.9551
415.71                    2.9542
415.97                    2.9534
416.24                    2.9526
416.50                    2.9518
416.77                    2.9510
417.03                    2.9501
417.30                    2.9493
417.56                    2.9485
417.83                    2.9477
418.09                    2.9468
418.36                    2.9460
418.62                    2.9452
418.89                    2.9443
419.15                    2.9435
419.42                    2.9427
419.69                    2.9418
419.95                    2.9410
420.22                    2.9401
420.48                    2.9393
420.75                    2.9384
421.01                    2.9376
421.28                    2.9367
421.54                    2.9359
421.81                    2.9350
422.07                    2.9341
422.34                    2.9333
422.60                    2.9324
422.87                    2.9316
423.13                    2.9307
423.40                    2.9299
423.67                    2.9290
423.93                    2.9282
424.20                    2.9273
424.46                    2.9265
424.73                    2.9256
424.99                    2.9248
425.26                    2.9239
425.52                    2.9230
425.79                    2.9222
426.05                    2.9213
426.32                    2.9205
426.58                    2.9196
426.85                    2.9188
427.11                    2.9179
427.38                    2.9171
427.65                    2.9162
427.91                    2.9154
428.18                    2.9146
428.44                    2.9137
428.71                    2.9129
428.97                    2.9120
429.24                    2.9112
429.50                    2.9103
429.77                    2.9095
430.03                    2.9086
430.30                    2.9078
430.56                    2.9070
430.83                    2.9062
431.09                    2.9053
431.36                    2.9045
431.63                    2.9037
431.89                    2.9028
432.16                    2.9020
432.42                    2.9012
432.69                    2.9003
432.95                    2.8995
433.22                    2.8987
433.48                    2.8978
433.75                    2.8970
434.01                    2.8962
434.28                    2.8954
434.54                    2.8945
434.81                    2.8937
435.07                    2.8929
435.34                    2.8921
435.61                    2.8912
435.87                    2.8904
436.14                    2.8896
436.40                    2.8888
436.67                    2.8880
436.93                    2.8871
437.20                    2.8863
437.46                    2.8855
437.73                    2.8847
437.99                    2.8839
438.26                    2.8831
438.52                    2.8823
438.79                    2.8815
439.05                    2.8807
439.32                    2.8799
439.59                    2.8790
439.85                    2.8782
440.12                    2.8775
440.38                    2.8767
440.65                    2.8759
440.91                    2.8751
441.18                    2.8743
441.44                    2.8736
441.71                    2.8728
441.97                    2.8720
442.24                    2.8712
442.50                    2.8704
442.77                    2.8697
443.04                    2.8689
443.30                    2.8681
443.57                    2.8673
443.83                    2.8665
444.10                    2.8658
444.36                    2.8650
444.63                    2.8642
444.89                    2.8634
445.16                    2.8626
445.42                    2.8618
445.69                    2.8610
445.95                    2.8602
446.22                    2.8594
446.48                    2.8587
446.75                    2.8579
447.02                    2.8571
447.28                    2.8563
447.55                    2.8555
447.81                    2.8547
448.08                    2.8539
448.34                    2.8531
448.61                    2.8523
448.87                    2.8515
449.14                    2.8507
449.40                    2.8499
449.67                    2.8491
449.93                    2.8483
450.20                    2.8474
450.46                    2.8466
450.73                    2.8458
451.00                    2.8450
451.26                    2.8441
451.53                    2.8433
451.79                    2.8425
452.06                    2.8417
452.32                    2.8408
452.59                    2.8400
452.85                    2.8392
453.12                    2.8384
453.38                    2.8375
453.65                    2.8367
453.91                    2.8359
454.18                    2.8351
454.44                    2.8342
454.71                    2.8334
454.98                    2.8326
455.24                    2.8318
455.51                    2.8309
455.77                    2.8301
456.04                    2.8293
456.30                    2.8285
456.57                    2.8277
456.83                    2.8268
457.10                    2.8260
457.36                    2.8252
457.63                    2.8244
457.89                    2.8236
458.16                    2.8228
458.42                    2.8219
458.69                    2.8211
458.96                    2.8203
459.22                    2.8195
459.49                    2.8187
459.75                    2.8179
460.02                    2.8170
460.28                    2.8162
460.55                    2.8154
460.81                    2.8146
461.08                    2.8138
461.34                    2.8130
461.61                    2.8122
461.87                    2.8114
462.14                    2.8106
462.40                    2.8098
462.67                    2.8090
462.94                    2.8082
463.20                    2.8074
463.47                    2.8066
463.73                    2.8058
464.00                    2.8050
464.26                    2.8042
464.53                    2.8034
464.79                    2.8026
465.06                    2.8018
465.32                    2.8010
465.59                    2.8002
465.85                    2.7994
466.12                    2.7987
466.38                    2.7979
466.65                    2.7971
466.92                    2.7963
467.18                    2.7955
467.45                    2.7947
467.71                    2.7939
467.98                    2.7931
468.24                    2.7924
468.51                    2.7916
468.77                    2.7908
469.04                    2.7901
469.30                    2.7893
469.57                    2.7885
469.83                    2.7877
470.10                    2.7870
470.37                    2.7863
470.63                    2.7855
470.90                    2.7848
471.16                    2.7840
471.43                    2.7833
471.69                    2.7825
471.96                    2.7818
472.22                    2.7811
472.49                    2.7803
472.75                    2.7796
473.02                    2.7788
473.28                    2.7781
473.55                    2.7773
473.81                    2.7766
474.08                    2.7758
474.35                    2.7751
474.61                    2.7743
474.88                    2.7736
475.14                    2.7728
475.41                    2.7721
475.67                    2.7713
475.94                    2.7705
476.20                    2.7698
476.47                    2.7690
476.73                    2.7682
477.00                    2.7675
477.26                    2.7667
477.53                    2.7659
477.79                    2.7652
478.06                    2.7644
478.33                    2.7636
478.59                    2.7628
478.86                    2.7620
479.12                    2.7612
479.39                    2.7605
479.65                    2.7597
479.92                    2.7589
480.18                    2.7580
480.45                    2.7572
480.71                    2.7564
480.98                    2.7555
481.24                    2.7547
481.51                    2.7539
481.77                    2.7531
482.04                    2.7522
482.31                    2.7514
482.57                    2.7506
482.84                    2.7497
483.10                    2.7489
483.37                    2.7481
483.63                    2.7472
483.90                    2.7464
484.16                    2.7456
484.43                    2.7447
484.69                    2.7439
484.96                    2.7431
485.22                    2.7423
485.49                    2.7414
485.75                    2.7406
486.02                    2.7398
486.29                    2.7390
486.55                    2.7381
486.82                    2.7373
487.08                    2.7365
487.35                    2.7357
487.61                    2.7348
487.88                    2.7340
488.14                    2.7332
488.41                    2.7324
488.67                    2.7316
488.94                    2.7308
489.20                    2.7299
489.47                    2.7291
489.73                    2.7283
490.00                    2.7275
490.27                    2.7267
490.53                    2.7259
490.80                    2.7251
491.06                    2.7243
491.33                    2.7235
491.59                    2.7227
491.86                    2.7219
492.12                    2.7211
492.39                    2.7203
492.65                    2.7195
492.92                    2.7187
493.18                    2.7180
493.45                    2.7172
493.71                    2.7164
493.98                    2.7156
494.25                    2.7148
494.51                    2.7140
494.78                    2.7132
495.04                    2.7124
495.31                    2.7116
495.57                    2.7108
495.84                    2.7100
496.10                    2.7092
496.37                    2.7084
496.63                    2.7076
496.90                    2.7068
497.16                    2.7060
497.43                    2.7052
497.70                    2.7044
497.96                    2.7037
498.23                    2.7029
498.49                    2.7021
498.76                    2.7013
499.02                    2.7005
499.29                    2.6997
499.55                    2.6989
499.82                    2.6981
500.08                    2.6973
500.35                    2.6966
500.61                    2.6958
500.88                    2.6950
501.14                    2.6942
501.41                    2.6934
501.68                    2.6927
501.94                    2.6919
502.21                    2.6911
502.47                    2.6903
502.74                    2.6895
503.00                    2.6888
503.27                    2.6880
503.53                    2.6872
503.80                    2.6864
504.06                    2.6856
504.33                    2.6849
504.59                    2.6841
504.86                    2.6833
505.12                    2.6825
505.39                    2.6818
505.66                    2.6810
505.92                    2.6802
506.19                    2.6794
506.45                    2.6786
506.72                    2.6779
506.98                    2.6771
507.25                    2.6763
507.51                    2.6755
507.78                    2.6747
508.04                    2.6740
508.31                    2.6732
508.57                    2.6724
508.84                    2.6716
509.10                    2.6708
509.37                    2.6701
509.64                    2.6693
509.90                    2.6686
510.17                    2.6678
510.43                    2.6671
510.70                    2.6662
510.96                    2.6660
511.23                    2.6623
511.49                    2.6655
511.76                    2.6668
512.02                    2.6654
512.29                    2.6539
512.55                    2.6405
512.82                    2.6401
513.08                    2.6514
513.35                    2.6579
513.62                    2.6535
513.88                    2.6453
514.15                    2.6466
514.41                    2.6469
514.68                    2.6485
514.94                    2.6437
515.21                    2.6408
515.47                    2.6344
515.74                    2.6311
516.00                    2.6320
516.27                    2.6243
516.53                    2.6177
516.80                    2.6126
517.06                    2.6259
517.33                    2.6313
517.60                    2.6398
517.86                    2.6265
518.13                    2.6315
518.39                    2.6318
518.66                    2.6479
518.92                    2.6415
519.19                    2.6520
519.45                    2.7586
519.72                    2.8859
519.98                    2.9222
520.25                    2.8225
520.51                    2.6977
520.78                    2.6482
521.04                    2.6307
521.31                    2.6276
521.58                    2.6288
521.84                    2.6349
522.11                    2.6465
522.37                    2.6326
522.64                    2.6192
522.90                    2.6093
523.17                    2.6158
523.43                    2.6213
523.70                    2.6257
523.96                    2.6269
524.23                    2.6233
524.49                    2.6170
524.76                    2.6112
525.03                    2.6188
525.29                    2.6222
525.56                    2.6266
525.82                    2.6128
526.09                    2.5966
526.35                    2.5862
526.62                    2.5858
526.88                    2.5953
527.15                    2.6118
527.41                    2.6255
527.68                    2.6288
527.94                    2.6332
528.21                    2.6195
528.47                    2.6056
528.74                    2.5893
529.01                    2.5948
529.27                    2.6032
529.54                    2.6101
529.80                    2.6113
530.07                    2.6110
530.33                    2.6054
530.60                    2.6038
530.86                    2.6193
531.13                    2.6211
531.39                    2.6191
531.66                    2.6001
531.92                    2.5958
532.19                    2.5921
532.45                    2.6000
532.72                    2.6156
532.99                    2.6356
533.25                    2.6261
533.52                    2.6076
533.78                    2.5880
534.05                    2.5877
534.31                    2.5927
534.58                    2.5952
534.84                    2.5907
535.11                    2.5830
535.37                    2.5812
535.64                    2.5881
535.90                    2.5926
536.17                    2.5905
536.43                    2.5845
536.70                    2.5818
536.97                    2.5790
537.23                    2.5865
537.50                    2.5825
537.76                    2.5760
538.03                    2.5610
538.29                    2.5579
538.56                    2.5602
538.82                    2.5720
539.09                    2.5681
539.35                    2.5664
539.62                    2.5589
539.88                    2.5617
540.15                    2.5637
540.41                    2.5613
540.68                    2.5694
540.95                    2.5636
541.21                    2.5716
541.48                    2.5602
541.74                    2.5663
542.01                    2.5530
542.27                    2.5500
542.54                    2.5474
542.80                    2.5522
543.07                    2.5625
543.33                    2.5705
543.60                    2.5695
543.86                    2.5701
544.13                    2.5537
544.39                    2.5582
544.66                    2.5529
544.93                    2.5651
545.19                    2.5632
545.46                    2.5608
545.72                    2.5577
545.99                    2.5611
546.25                    2.5664
546.52                    2.5689
546.78                    2.5617
547.05                    2.5453
547.31                    2.5311
547.58                    2.5314
547.84                    2.5394
548.11                    2.5389
548.37                    2.5441
548.64                    2.5491
548.91                    2.5663
549.17                    2.5619
549.44                    2.5686
549.70                    2.5641
549.97                    2.5669
550.23                    2.5604
550.50                    2.5605
550.76                    2.5594
551.03                    2.5566
551.29                    2.5522
551.56                    2.5501
551.82                    2.5480
552.09                    2.5406
552.36                    2.5288
552.62                    2.5238
552.89                    2.5271
553.15                    2.5459
553.42                    2.5493
553.68                    2.5583
553.95                    2.5619
554.21                    2.5822
554.48                    2.5860
554.74                    2.5792
555.01                    2.5663
555.27                    2.5587
555.54                    2.5516
555.80                    2.5551
556.07                    2.5677
556.34                    2.5781
556.60                    2.5783
556.87                    2.5901
557.13                    4.5524
557.40                    7.2892
557.66                    9.1855
557.93                    7.6796
558.19                    4.9399
558.46                    3.0184
558.72                    2.5649
558.99                    2.5582
559.25                    2.5527
559.52                    2.5410
559.78                    2.5403
560.05                    2.5566
560.32                    2.5660
560.58                    2.5708
560.85                    2.5468
561.11                    2.5200
561.38                    2.5193
561.64                    2.5386
561.91                    2.5708
562.17                    2.5815
562.44                    2.5771
562.70                    2.5508
562.97                    2.5273
563.23                    2.5109
563.50                    2.5169
563.76                    2.5246
564.03                    2.5289
564.30                    2.5374
564.56                    2.5484
564.83                    2.5457
565.09                    2.5281
565.36                    2.5076
565.62                    2.5064
565.89                    2.5125
566.15                    2.5219
566.42                    2.5342
566.68                    2.5429
566.95                    2.5365
567.21                    2.5291
567.48                    2.5235
567.74                    2.5312
568.01                    2.5196
568.28                    2.5132
568.54                    2.4972
568.81                    2.5079
569.07                    2.5218
569.34                    2.5369
569.60                    2.5482
569.87                    2.5359
570.13                    2.5342
570.40                    2.5159
570.66                    2.5191
570.93                    2.5079
571.19                    2.5094
571.46                    2.5123
571.72                    2.5287
571.99                    2.5367
572.26                    2.5393
572.52                    2.5253
572.79                    2.5228
573.05                    2.5175
573.32                    2.5182
573.58                    2.5133
573.85                    2.5071
574.11                    2.5131
574.38                    2.5157
574.64                    2.5180
574.91                    2.5039
575.17                    2.4980
575.44                    2.4917
575.70                    2.5018
575.97                    2.4922
576.24                    2.4932
576.50                    2.4922
576.77                    2.5028
577.03                    2.5040
577.30                    2.4990
577.56                    2.4936
577.83                    2.4930
578.09                    2.4893
578.36                    2.4889
578.62                    2.4787
578.89                    2.4765
579.15                    2.4778
579.42                    2.4793
579.68                    2.4862
579.95                    2.4885
580.22                    2.5029
580.48                    2.5031
580.75                    2.4953
581.01                    2.4831
581.28                    2.4833
581.54                    2.4893
581.81                    2.5059
582.07                    2.5165
582.34                    2.5192
582.60                    2.5039
582.87                    2.5019
583.13                    2.5005
583.40                    2.4997
583.67                    2.4975
583.93                    2.5114
584.20                    2.5967
584.46                    2.5878
584.73                    2.5760
584.99                    2.4914
585.26                    2.4982
585.52                    2.4872
585.79                    2.4938
586.05                    2.5292
586.32                    2.6098
586.58                    2.6533
586.85                    2.6442
587.11                    2.5863
587.38                    2.5645
587.65                    2.5473
587.91                    2.5454
588.18                    2.5576
588.44                    3.0345
588.71                    3.5570
588.97                    3.9777
589.24                    3.7948
589.50                    3.4489
589.77                    3.0397
590.03                    2.7571
590.30                    2.5955
590.56                    2.5749
590.83                    2.5856
591.09                    2.6179
591.36                    2.6400
591.63                    2.6323
591.89                    2.6049
592.16                    2.5805
592.42                    2.5700
592.69                    2.5853
592.95                    2.6257
593.22                    2.6666
593.48                    2.6253
593.75                    2.5572
594.01                    2.5088
594.28                    2.5277
594.54                    2.5431
594.81                    2.5782
595.07                    2.6076
595.34                    2.6092
595.61                    2.5680
595.87                    2.5129
596.14                    2.4939
596.40                    2.4930
596.67                    2.5178
596.93                    2.5422
597.20                    2.5659
597.46                    2.5846
597.73                    2.5767
597.99                    2.5467
598.26                    2.5052
598.52                    2.4947
598.79                    2.5071
599.05                    2.5025
599.32                    2.4925
599.59                    2.4871
599.85                    2.4936
600.12                    2.5091
600.38                    2.4998
600.65                    2.4908
600.91                    2.4674
601.18                    2.4556
601.44                    2.4435
601.71                    2.4365
601.97                    2.4295
602.24                    2.4267
602.50                    2.4359
602.77                    2.4469
603.03                    2.4508
603.30                    2.4443
603.57                    2.4360
603.83                    2.4316
604.10                    2.4299
604.36                    2.4289
604.63                    2.4220
604.89                    2.4101
605.16                    2.3974
605.42                    2.3892
605.69                    2.3896
605.95                    2.3953
606.22                    2.4054
606.48                    2.4093
606.75                    2.4002
607.01                    2.3971
607.28                    2.3890
607.55                    2.3972
607.81                    2.3866
608.08                    2.3890
608.34                    2.3821
608.61                    2.3823
608.87                    2.3821
609.14                    2.3815
609.40                    2.3905
609.67                    2.3924
609.93                    2.3935
610.20                    2.3884
610.46                    2.3905
610.73                    2.3880
611.00                    2.3851
611.26                    2.3715
611.53                    2.3697
611.79                    2.3575
612.06                    2.3536
612.32                    2.3561
612.59                    2.3601
612.85                    2.3615
613.12                    2.3507
613.38                    2.3769
613.65                    2.4024
613.91                    2.4274
614.18                    2.4121
614.44                    2.4020
614.71                    2.3784
614.98                    2.3727
615.24                    2.3949
615.51                    2.4354
615.77                    2.4384
616.04                    2.3972
616.30                    2.3722
616.57                    2.3929
616.83                    2.4243
617.10                    2.7255
617.36                    2.7145
617.63                    2.6921
617.89                    2.3716
618.16                    2.3508
618.42                    2.3369
618.69                    2.3331
618.96                    2.3299
619.22                    2.3363
619.49                    2.3369
619.75                    2.3624
620.02                    2.3888
620.28                    2.4007
620.55                    2.3779
620.81                    2.3558
621.08                    2.3538
621.34                    2.3621
621.61                    2.3860
621.87                    2.4131
622.14                    2.4118
622.40                    2.3774
622.67                    2.3538
622.94                    2.4117
623.20                    2.5691
623.47                    2.6963
623.73                    2.7249
624.00                    2.6225
624.26                    2.5197
624.53                    2.4249
624.79                    2.3775
625.06                    2.3860
625.32                    2.4841
625.59                    2.5972
625.85                    2.6305
626.12                    2.5759
626.38                    2.5029
626.65                    2.4588
626.92                    2.4274
627.18                    2.4022
627.45                    2.3970
627.71                    2.4024
627.98                    2.4147
628.24                    2.4608
628.51                    2.5413
628.77                    2.5716
629.04                    2.5651
629.30                    3.6892
629.57                    9.2980
629.83                   14.6868
630.10                   17.4825
630.36                   11.9215
630.63                    6.5645
630.90                    2.5442
631.16                    2.4298
631.43                    2.3486
631.69                    2.3869
631.96                    2.4474
632.22                    2.4564
632.49                    2.5132
632.75                    2.5446
633.02                    2.5958
633.28                    2.4962
633.55                    2.3883
633.81                    2.3089
634.08                    2.3031
634.34                    2.3411
634.61                    2.3629
634.88                    2.3904
635.14                    2.4282
635.41                    2.4975
635.67                    3.0601
635.94                    4.6615
636.20                    6.3514
636.47                    6.9083
636.73                    5.2448
637.00                    3.4520
637.26                    2.3117
637.53                    2.3216
637.79                    2.3392
638.06                    2.3527
638.33                    2.3671
638.59                    2.3681
638.86                    2.3452
639.12                    2.3050
639.39                    2.2797
639.65                    2.2681
639.92                    2.2748
640.18                    2.2712
640.45                    2.2803
640.71                    2.2729
640.98                    2.2759
641.24                    2.2721
641.51                    2.2821
641.77                    2.2971
642.04                    2.3082
642.31                    2.2997
642.57                    2.2790
642.84                    2.2653
643.10                    2.2609
643.37                    2.2521
643.63                    2.2379
643.90                    2.2321
644.16                    2.2356
644.43                    2.2458
644.69                    2.2557
644.96                    2.2719
645.22                    2.2998
645.49                    2.3089
645.75                    2.3151
646.02                    2.3735
646.29                    2.4621
646.55                    2.5415
646.82                    2.5297
647.08                    2.4532
647.35                    2.3784
647.61                    2.3110
647.88                    2.2979
648.14                    2.2790
648.41                    2.2765
648.67                    2.2583
648.94                    2.2476
649.20                    2.2476
649.47                    2.2525
649.73                    2.2603
650.00                    2.2635
650.27                    2.2897
650.53                    2.2824
650.80                    2.2703
651.06                    2.2407
651.33                    2.2464
651.59                    2.2412
651.86                    2.2358
652.12                    2.2388
652.39                    2.2463
652.65                    2.2481
652.92                    2.2474
653.18                    2.2454
653.45                    2.2514
653.71                    2.2549
653.98                    2.2632
654.25                    2.2647
654.51                    2.2528
654.78                    2.2563
655.04                    2.3122
655.31                    2.3210
655.57                    2.3203
655.84                    2.2626
656.10                    2.2532
656.37                    2.2352
656.63                    2.3015
656.90                    2.3108
657.16                    2.3172
657.43                    2.2790
657.69                    2.2683
657.96                    2.2674
658.23                    2.2334
658.49                    2.2389
658.76                    2.2329
659.02                    2.2295
659.29                    2.2284
659.55                    2.2281
659.82                    2.2279
660.08                    2.2287
660.35                    2.2285
660.61                    2.2301
660.88                    2.2234
661.14                    2.2359
661.41                    2.2339
661.67                    2.2351
661.94                    2.2222
662.21                    2.2236
662.47                    2.2420
662.74                    2.2612
663.00                    2.2596
663.27                    2.2431
663.53                    2.2324
663.80                    2.2319
664.06                    2.2277
664.33                    2.2184
664.59                    2.2197
664.86                    2.2199
665.12                    2.2223
665.39                    2.2252
665.66                    2.2275
665.92                    2.2248
666.19                    2.2199
666.45                    2.2236
666.72                    2.2231
666.98                    2.2229
667.25                    2.2158
667.51                    2.2155
667.78                    2.2172
668.04                    2.2170
668.31                    2.2167
668.57                    2.2145
668.84                    2.2143
669.10                    2.2140
669.37                    2.2140
669.64                    2.2234
669.90                    2.2258
670.17                    2.2253
670.43                    2.2300
670.70                    2.2472
670.96                    2.2749
671.23                    2.2698
671.49                    2.2645
671.76                    2.2517
672.02                    2.2446
672.29                    2.2406
672.55                    2.2290
672.82                    2.2257
673.08                    2.2141
673.35                    2.2409
673.62                    2.2406
673.88                    2.2404
674.15                    2.2104
674.41                    2.2115
674.68                    2.2123
674.94                    2.2121
675.21                    2.2107
675.47                    2.2124
675.74                    2.2110
676.00                    2.2139
676.27                    2.2126
676.53                    2.2121
676.80                    2.2205
677.06                    2.2362
677.33                    2.2361
677.60                    2.2254
677.86                    2.2073
678.13                    2.2069
678.39                    2.2047
678.66                    2.2046
678.92                    2.2250
679.19                    2.2249
679.45                    2.2285
679.72                    2.2269
679.98                    2.2264
680.25                    2.2221
680.51                    2.2025
680.78                    2.2023
681.04                    2.2020
681.31                    2.2018
681.58                    2.2015
681.84                    2.2013
682.11                    2.2010
682.37                    2.2008
682.64                    2.2198
682.90                    2.2246
683.17                    2.5645
683.43                    2.5452
683.70                    2.5401
683.96                    2.2140
684.23                    2.2137
684.49                    2.2134
684.76                    2.1984
685.02                    2.1982
685.29                    2.1979
685.56                    2.1976
685.82                    2.1974
686.09                    2.6992
686.35                    2.6995
686.62                    2.6997
686.88                    2.2069
687.15                    2.2067
687.41                    2.2064
687.68                    2.1954
687.94                    2.2131
688.21                    2.2129
688.47                    2.2137
688.74                    2.1954
689.00                    2.1982
689.27                    2.1969
689.54                    2.1996
689.80                    2.4550
690.07                    2.4553
690.33                    2.4578
690.60                    2.1976
690.86                    2.1973
691.13                    2.1918
691.39                    2.1915
691.66                    2.2035
691.92                    2.2033
692.19                    2.2029
692.45                    2.1903
692.72                    2.1900
692.99                    2.1898
693.25                    2.1979
693.52                    2.2067
693.78                    2.2198
694.05                    2.2126
694.31                    2.2046
694.58                    2.1909
694.84                    2.2031
695.11                    2.2078
695.37                    2.2268
695.64                    2.2416
695.90                    2.2510
696.17                    2.2363
696.43                    2.2099
696.70                    2.2565
696.97                    2.2614
697.23                    2.2691
697.50                    2.2097
697.76                    2.2002
698.03                    2.1890
698.29                    2.1843
698.56                    2.1910
698.82                    2.1930
699.09                    2.1927
699.35                    2.1925
699.62                    2.1940
699.88                    2.2063
700.15                    2.2015
700.41                    2.1969
700.68                    2.1839
700.95                    2.1801
701.21                    2.1797
701.48                    2.1794
701.74                    2.1790
702.01                    2.1786
702.27                    2.1782
702.54                    2.1783
702.80                    2.1812
703.07                    2.1823
703.33                    2.1815
703.60                    2.1822
703.86                    2.2227
704.13                    2.2373
704.39                    2.2330
704.66                    2.1916
704.93                    2.1882
705.19                    2.1875
705.46                    2.1858
705.72                    2.1861
705.99                    2.1983
706.25                    2.1979
706.52                    2.1881
706.78                    2.1995
707.05                    2.2193
707.31                    2.2158
707.58                    2.2007
707.84                    2.1891
708.11                    2.1887
708.37                    2.1787
708.64                    2.1697
708.91                    2.1697
709.17                    2.1693
709.44                    2.1754
709.70                    2.1763
709.97                    2.1759
710.23                    2.1688
710.50                    2.1957
710.76                    2.2058
711.03                    2.2057
711.29                    2.1764
711.56                    2.1656
711.82                    2.1651
712.09                    2.1647
712.35                    2.1643
712.62                    2.1640
712.89                    2.1693
713.15                    2.1690
713.42                    2.1686
713.68                    2.1728
713.95                    2.1725
714.21                    2.1722
714.48                    2.1616
714.74                    2.1612
715.01                    2.1609
715.27                    2.1636
715.54                    2.1722
715.80                    2.1719
716.07                    2.1685
716.33                    2.1637
716.60                    2.1634
716.87                    2.1631
717.13                    2.1582
717.40                    2.1579
717.66                    2.1611
717.93                    2.1608
718.19                    2.1604
718.46                    2.1566
718.72                    2.1562
718.99                    2.1559
719.25                    2.1556
719.52                    2.1553
719.78                    2.1550
720.05                    2.1547
720.32                    2.1544
720.58                    2.1542
720.85                    2.1539
721.11                    2.1537
721.38                    2.1534
721.64                    2.1531
721.91                    2.1529
722.17                    2.1548
722.44                    2.1545
722.70                    2.1565
722.97                    2.1541
723.23                    2.1538
723.50                    2.1513
723.76                    2.2657
724.03                    2.2657
724.30                    2.3622
724.56                    2.2593
724.83                    2.2620
725.09                    2.1649
725.36                    2.1564
725.62                    2.1533
725.89                    2.1531
726.15                    2.1487
726.42                    2.1484
726.68                    2.1563
726.95                    2.1561
727.21                    2.2498
727.48                    2.2415
727.74                    2.2414
728.01                    2.1469
728.28                    2.1530
728.54                    2.1528
728.81                    2.1548
729.07                    2.1501
729.34                    2.3299
729.60                    2.3277
729.87                    2.3259
730.13                    2.1725
730.40                    2.1729
730.66                    2.1727
730.93                    2.1717
731.19                    2.1709
731.46                    2.1984
731.72                    2.2045
731.99                    2.2044
732.26                    2.1764
732.52                    2.1426
732.79                    2.1460
733.05                    2.1457
733.32                    2.1455
733.58                    2.1416
733.85                    3.8832
734.11                    3.8993
734.38                    3.9018
734.64                    2.1595
734.91                    2.1466
735.17                    2.1463
735.44                    2.1555
735.70                    2.1543
735.97                    2.1597
736.24                    2.1447
736.50                    2.1505
736.77                    2.1446
737.03                    2.1641
737.30                    2.1604
737.56                    2.1785
737.83                    2.1627
738.09                    2.1824
738.36                    2.1641
738.62                    2.1602
738.89                    2.1377
739.15                    2.1372
739.42                    2.1364
739.68                    2.1403
739.95                    2.1478
740.22                    2.1478
740.48                    2.1436
740.75                    2.1452
741.01                    2.1818
741.28                    2.1832
741.54                    2.2044
741.81                    2.1670
742.07                    2.1732
742.34                    2.1416
742.60                    2.1649
742.87                    2.1555
743.13                    2.1633
743.40                    2.1394
743.66                    2.1554
743.93                    2.1520
744.20                    2.1543
744.46                    2.1376
744.73                    2.1373
744.99                    2.1481
745.26                    2.1478
745.52                    2.1442
745.79                    2.1442
746.05                    2.1460
746.32                    2.1573
746.58                    2.1548
746.85                    2.3426
747.11                    2.3721
747.38                    2.3611
747.64                    2.2705
747.91                    2.2416
748.18                    2.2625
748.44                    2.1645
748.71                    2.1569
748.97                    2.1349
749.24                    2.1356
749.50                    2.1430
749.77                    2.1613
750.03                    2.1741
750.30                    2.1605
750.56                    2.1590
750.83                    2.2288
751.09                    2.2311
751.36                    2.2670
751.63                    2.1860
751.89                    2.1860
752.16                    2.5133
752.42                    2.5128
752.69                    2.5200
752.95                    2.1657
753.22                    2.1821
753.48                    2.1799
753.75                    2.2070
754.01                    2.2024
754.28                    2.1960
754.54                    2.1410
754.81                    2.1487
755.07                    2.1866
755.34                    2.1947
755.61                    2.1707
755.87                    2.1362
756.14                    2.1462
756.40                    2.1586
756.67                    2.1540
756.93                    2.7860
757.20                    2.8589
757.46                    2.8575
757.73                    2.2091
757.99                    2.1288
758.26                    2.1365
758.52                    2.1324
758.79                    2.1257
759.05                    2.1223
759.32                    2.1222
759.59                    2.3179
759.85                    2.3132
760.12                    2.3131
760.38                    2.1170
760.65                    2.1170
760.91                    2.1169
761.18                    2.1250
761.44                    2.1249
761.71                    2.1363
761.97                    2.1470
762.24                    2.1469
762.50                    2.1371
762.77                    2.1181
763.03                    2.1254
763.30                    2.1237
763.57                    2.1251
763.83                    2.1176
764.10                    2.1176
764.36                    2.1448
764.63                    2.1448
764.89                    2.1447
765.16                    2.1159
765.42                    2.1159
765.69                    2.1158
765.95                    2.3169
766.22                    2.3170
766.48                    2.3171
766.75                    2.1157
767.01                    2.1197
767.28                    2.1197
767.55                    2.1197
767.81                    2.1184
768.08                    2.1184
768.34                    2.1194
768.61                    2.1166
768.87                    2.1410
769.14                    2.1400
769.40                    2.1400
769.67                    2.1515
769.93                    2.1568
770.20                    2.1568
770.46                    2.1512
770.73                    2.1659
770.99                    3.9466
771.26                    4.2849
771.53                    4.6455
771.79                    2.9007
772.06                    2.5505
772.32                    2.5364
772.59                    2.5005
772.85                    2.4893
773.12                    2.1482
773.38                    2.1483
773.65                    2.1411
773.91                    2.1201
774.18                    2.1201
774.44                    2.1237
774.71                    2.1378
774.97                    2.1574
775.24                    2.1539
775.51                    2.1358
775.77                    2.1443
776.04                    2.1444
776.30                    2.1456
776.57                    2.1177
776.83                    2.1178
777.10                    2.1810
777.36                    2.1811
777.63                    2.1812
777.89                    2.1170
778.16                    2.1216
778.42                    2.1516
778.69                    2.1627
778.96                    2.1992
779.22                    2.1729
779.49                    2.1620
779.75                    2.1211
780.02                    2.1345
780.28                    2.1345
780.55                    2.5029
780.81                    2.4860
781.08                    2.4859
781.34                    2.1391
781.61                    2.1882
781.87                    6.0455
782.14                    6.0225
782.40                    5.9715
782.67                    2.1256
782.94                    2.1257
783.20                    2.1259
783.47                    2.1200
783.73                    2.1202
784.00                    2.1203
784.26                    2.1196
784.53                    2.1198
784.79                    2.1257
785.06                    4.9684
785.32                    4.9669
785.59                    4.9597
785.85                    2.1206
786.12                    2.1208
786.38                    2.1209
786.65                    2.1210
786.92                    2.1212
787.18                    2.1214
787.45                    2.1216
787.71                    2.1218
787.98                    2.1220
788.24                    2.1222
788.51                    2.1311
788.77                    2.2199
789.04                    2.2201
789.30                    2.2117
789.57                    2.1233
789.83                    2.1236
790.10                    2.1238
790.36                    2.1240
790.63                    2.1243
790.90                    2.1264
791.16                    2.1266
791.43                    2.1269
791.69                    2.1577
791.96                    2.1580
792.22                    2.1582
792.49                    2.1261
792.75                    2.1514
793.02                    2.1517
793.28                    2.1520
793.55                    2.1272
793.81                    2.1275
794.08                    2.1284
794.34                    2.1658
794.61                    2.1917
794.88                    2.1913
795.14                    2.1597
795.41                    2.1345
795.67                    2.1348
795.94                    2.1300
796.20                    4.7873
796.47                    4.7884
796.73                    4.7895
797.00                    2.1314
797.26                    2.1363
797.53                    2.1367
797.79                    2.1371
798.06                    2.1328
798.32                    2.1332
798.59                    2.1336
798.86                    2.1430
799.12                    2.1690
799.39                    2.1694
799.65                    2.1608
799.92                    2.1369
800.18                    2.1420
800.45                    2.1426
800.71                    2.1416
800.98                    2.1374
801.24                    2.2066
801.51                    2.2071
801.77                    2.3200
802.04                    2.2605
802.30                    3.7883
802.57                    3.7797
802.84                    3.7745
803.10                    2.2469
803.37                    2.1476
803.63                    2.1559
803.90                    2.1516
804.16                    2.1509
804.43                    2.1436
804.69                    2.1831
804.96                    2.4046
805.22                    2.4184
805.49                    2.4004
805.75                    2.2137
806.02                    2.2014
806.29                    2.1937
806.55                    2.1890
806.82                    2.2214
807.08                    2.2100
807.35                    2.2059
807.61                    2.2060
807.88                    2.2474
808.14                    2.3159
808.41                    2.2866
808.67                    2.2465
808.94                    2.1545
809.20                    2.1567
809.47                    2.1721
809.73                    2.1729
810.00                    2.5025
810.27                    2.4882
810.53                    2.5262
810.80                    2.1996
811.06                    2.2158
811.33                    2.1855
811.59                    2.1945
811.86                    2.2021
812.12                    2.1987
812.39                    2.2333
812.65                    2.2189
812.92                    2.2431
813.18                    2.2020
813.45                    2.2037
813.71                    2.2060
813.98                    2.2160
814.25                    2.2175
814.51                    2.2512
814.78                    2.4436
815.04                    2.4408
815.31                    2.4080
815.57                    2.2320
815.84                    2.2269
816.10                    2.2033
816.37                    2.2793
816.63                    2.3277
816.90                    2.3604
817.16                    2.2597
817.43                    2.2145
817.69                    2.1977
817.96                    2.2011
818.23                    2.2027
818.49                    2.3045
818.76                    2.3314
819.02                    2.3620
819.29                    2.3428
819.55                    2.3096
819.82                    2.2775
820.08                    2.1797
820.35                    2.1803
820.61                    2.2001
820.88                    2.2216
821.14                    2.2320
821.41                    2.2161
821.67                    2.2029
821.94                    2.2208
822.21                    2.2247
822.47                    2.2303
822.74                    2.2304
823.00                    2.2265
823.27                    2.2367
823.53                    2.2122
823.80                    2.2112
824.06                    2.1890
824.33                    2.2363
824.59                    2.2394
824.86                    2.2650
825.12                    2.2173
825.39                    2.2417
825.65                    2.2640
825.92                    2.3182
826.19                    2.3716
826.45                    2.3409
826.72                    2.2881
826.98                    2.2514
827.25                    2.2368
827.51                    2.4466
827.78                    2.4059
828.04                    2.4069
828.31                    2.2078
828.57                    5.1297
828.84                    5.1958
829.10                    5.2065
829.37                    2.9112
829.63                    4.3825
829.90                    4.4023
830.17                    3.7694
830.43                    2.2726
830.70                    2.2425
830.96                    2.2433
831.23                    2.2286
831.49                    2.2873
831.76                    2.2882
832.02                    2.2669
832.29                    2.2096
832.55                    2.2103
832.82                    2.2112
833.08                    2.2120
833.35                    2.2129
833.62                    2.2450
833.88                    2.3034
834.15                    3.1710
834.41                    3.1561
834.68                    3.1923
834.94                    2.3250
835.21                    2.3254
835.47                    2.2340
835.74                    2.2440
836.00                    2.2309
836.27                    2.2958
836.53                    2.2878
836.80                    2.2889
837.06                    2.2495
837.33                    2.2505
837.60                    2.2525
837.86                    2.2298
838.13                    2.3198
838.39                    2.3233
838.66                    2.3245
838.92                    2.2363
839.19                    2.2364
839.45                    2.2607
839.72                    2.3092
839.98                    2.3081
840.25                    2.2858
840.51                    2.3912
840.78                    2.4533
841.04                    2.4565
841.31                    2.3746
841.58                    2.3268
841.84                    2.3562
842.11                    2.3528
842.37                    2.4060
842.64                    2.4846
842.90                    2.4331
843.17                    2.4569
843.43                    2.3750
843.70                    2.3723
843.96                    2.2906
844.23                    2.2676
844.49                    2.2625
844.76                    2.2606
845.02                    2.2897
845.29                    2.2901
845.56                    2.2915
845.82                    2.2649
846.09                    2.2663
846.35                    2.2676
846.62                    2.3044
846.88                    2.3068
847.15                    2.3081
847.41                    2.2739
847.68                    2.2743
847.94                    2.2757
848.21                    2.2771
848.47                    2.2785
848.74                    2.2799
849.00                    2.2898
849.27                    2.2912
849.54                    2.3526
849.80                    2.3457
850.07                    2.3650
850.33                    2.3335
850.60                    2.3378
850.86                    2.3216
851.13                    2.3441
851.39                    2.3449
851.66                    2.3496
851.92                    2.3366
852.19                    2.3764
852.45                    2.3749
852.72                    2.3424
852.98                    2.3036
853.25                    2.3052
853.52                    2.3067
853.78                    2.3083
854.05                    2.3098
854.31                    2.3114
854.58                    2.7444
854.84                    2.7464
855.11                    2.7483
855.37                    2.3175
855.64                    2.3191
855.90                    2.3207
856.17                    2.3223
856.43                    2.3240
856.70                    2.3256
856.96                    2.3272
857.23                    2.3289
857.50                    2.3306
857.76                    2.3322
858.03                    2.3339
858.29                    2.3356
858.56                    2.5224
858.82                    2.5243
859.09                    2.5263
859.35                    2.3822
859.62                    2.3840
859.88                    2.3858
860.15                    2.3476
860.41                    2.3494
860.68                    2.3511
860.95                    2.3529
861.21                    2.3547
861.48                    2.3564
861.74                    2.3685
862.01                    2.7792
862.27                    2.7818
862.54                    3.6398
862.80                    3.2327
863.07                    3.4746
863.33                    2.6079
863.60                    2.6101
863.86                    2.3725
864.13                    2.3744
864.39                    2.6887
864.66                    2.7796
864.93                    2.7818
865.19                    2.7980
865.46                    2.7113
865.72                    2.7136
865.99                    2.3875
866.25                    3.1643
866.52                    3.1671
866.78                    4.1537
867.05                    3.3802
867.31                    4.0992
867.58                    3.1280
867.84                    3.3837
868.11                    2.6682
868.37                    2.6587
868.64                    2.4071
868.91                    2.5072
869.17                    2.5094
869.44                    2.5116
869.70                    2.4212
869.97                    2.4232
870.23                    2.4251
870.50                    2.4233
870.76                    2.4253
871.03                    2.4274
871.29                    2.4272
871.56                    2.4293
871.82                    2.4314
872.09                    2.4335
872.35                    2.4356
872.62                    2.4378
872.89                    2.4399
873.15                    2.4421
873.42                    2.4442
873.68                    2.4464
873.95                    2.4486
874.21                    2.5185
874.48                    2.5208
874.74                    2.5695
875.01                    2.5076
875.27                    2.5099
875.54                    2.5667
875.80                    3.0850
876.07                    3.1156
876.33                    4.7094
876.60                    4.2864
876.87                    4.2609
877.13                    2.5700
877.40                    2.4798
877.66                    2.4822
877.93                    2.4844
878.19                    2.4888
878.46                    2.5216
878.72                    2.5240
878.99                    2.5219
879.25                    2.4934
879.52                    2.4958
879.78                    2.4981
880.05                    2.5004
880.31                    2.5029
880.58                    2.5053
880.85                    2.5077
881.11                    2.5102
881.38                    2.5126
881.64                    2.5150
881.91                    2.5175
882.17                    2.5513
882.44                   15.4587
882.70                   15.4894
882.97                   15.4947
883.23                    2.5472
883.50                    2.5732
883.76                    2.5637
884.03                    2.5663
884.29                    2.5399
884.56                    2.5424
884.83                    2.5892
885.09                    2.5920
885.36                    2.5945
885.62                    2.5526
885.89                    2.5548
886.15                    2.5574
886.42                    2.6703
886.68                    2.6730
886.95                    2.6758
887.21                    2.5679
887.48                    2.5705
887.74                    2.5732
888.01                    2.5758
888.27                    5.1513
888.54                    5.1588
888.81                    5.1663
889.07                    2.5866
889.34                    2.5893
889.60                    2.5921
889.87                    2.5948
890.13                    2.6005
890.40                    2.6032
890.66                    2.6060
890.93                    2.6058
891.19                    2.6086
891.46                    2.6114
891.72                    3.1316
891.99                    3.1354
892.26                    3.1393
892.52                    2.6227
892.79                    2.6256
893.05                    2.6283
893.32                    2.6310
893.58                    2.6337
893.85                    2.6366
894.11                    3.7873
894.38                    3.7925
894.64                    3.7978
894.91                    2.6713
895.17                    2.6743
895.44                    2.6773
895.70                    2.6706
895.97                    2.6736
896.24                    2.6766
896.50                    2.6661
896.77                    2.6691
897.03                    2.6721
897.30                    2.7202
897.56                    2.7302
897.83                    2.8646
898.09                    2.8301
898.36                    2.8270
898.62                    2.7137
898.89                    2.7094
899.15                    2.7121
899.42                    2.6998
899.68                    2.7029
899.95                    2.7542
900.22                    2.7818
900.48                    2.7852
900.75                    2.7396
901.01                    2.7772
901.28                    2.7860
901.54                    2.7895
901.81                    2.7373
902.07                    2.7353
902.34                    2.7386
902.60                    2.8239
902.87                    2.8276
903.13                    2.8516
903.40                    2.7872
903.66                    2.8837
903.93                    2.8670
904.20                    2.9806
904.46                    2.8998
904.73                    3.8588
904.99                    3.7642
905.26                    3.8033
905.52                    2.8442
905.79                    2.8207
906.05                    2.7835
906.32                    2.7870
906.58                    2.7905
906.85                    2.7941
907.11                    2.7977
907.38                    2.8013
907.64                    2.8048
907.91                    2.8085
908.18                    2.9119
908.44                    2.9157
908.71                    2.9729
908.97                    3.4115
909.24                    3.4419
909.50                    3.3940
909.77                    2.8789
910.03                    3.1501
910.30                    3.1552
910.56                    3.1392
910.83                    2.8483
911.09                    2.8767
911.36                    2.8935
911.62                    2.8974
911.89                    2.8764
912.16                    2.9266
912.42                    3.1037
912.69                    3.1085
912.95                    3.0532
913.22                    2.9288
913.48                    2.9329
913.75                    2.9546
914.01                    2.9826
914.28                    2.9917
914.54                    3.0255
914.81                    2.9617
915.07                    3.0369
915.34                    2.9935
915.60                    3.0685
915.87                    6.3985
916.14                    6.5857
916.40                    6.5351
916.67                    3.1017
916.93                    2.9785
917.20                    2.9814
917.46                    3.0070
917.73                    3.0622
917.99                    3.1011
918.26                    3.2089
918.52                    3.3598
918.79                    3.4197
919.05                    3.3077
919.32                    3.1172
919.59                    3.1961
919.85                    3.2718
920.00                    3.1782
920.50                    3.2047
921.00                    3.1983
921.50                    3.1841
922.00                    3.1883
922.50                    3.2101
923.00                    3.2061
923.50                    3.1839
924.00                    3.1657
924.50                    3.1568
925.00                    3.1536
925.50                    3.1648
926.00                    3.1674
926.50                    3.1671
927.00                    3.1744
927.50                    3.1405
928.00                    3.0765
928.50                    3.0532
929.00                    3.0498
929.50                    3.0059
930.00                    3.0544
930.50                    4.9400
931.00                    8.5605
931.50                    9.9495
932.00                    6.8479
932.50                    7.5531
933.00                    5.4233
933.50                    3.4296
934.00                    3.5763
934.50                    2.7234
935.00                    2.4193
935.50                    2.4109
936.00                    2.3064
936.50                    2.4533
937.00                    3.5253
937.50                    8.0742
938.00                   11.2624
938.50                    8.0550
939.00                    6.2922
939.50                    4.8971
940.00                    3.8145
940.50                    4.3889
941.00                    3.5149
941.50                    3.3990
942.00                    4.7174
942.50                    4.7783
943.00                    3.0164
943.50                    4.6493
944.00                    7.5096
944.50                    6.0975
945.00                    4.2823
945.50                    3.9048
946.00                    4.8520
946.50                    3.9514
947.00                    3.1277
947.50                    6.9658
948.00                   10.6846
948.50                    5.8001
949.00                    2.7964
949.50                    2.6307
950.00                    3.4586
950.50                    4.6299
951.00                    4.1236
951.50                    4.9905
952.00                    7.1626
952.50                    6.2391
953.00                    3.6647
953.50                    2.7828
954.00                    2.7463
954.50                    2.6496
955.00                    3.4441
955.50                    4.1925
956.00                    3.4546
956.50                    4.4326
957.00                    5.8301
957.50                    4.6120
958.00                    2.8389
958.50                    2.7241
959.00                    2.6574
959.50                    2.6358
960.00                    2.7617
960.50                    3.2002
961.00                    3.6061
961.50                    3.4611
962.00                    3.8244
962.50                    4.1937
963.00                    3.4909
963.50                    2.8837
964.00                    2.7945
964.50                    2.7814
965.00                    2.8658
965.50                    3.0701
966.00                    3.2007
966.50                    3.5340
967.00                    4.1846
967.50                    4.1490
968.00                    5.0669
968.50                    6.1462
969.00                    5.2227
969.50                    5.7402
970.00                    7.8222
970.50                    6.5383
971.00                    5.0611
971.50                    6.8472
972.00                    9.0524
972.50                    8.0030
973.00                    4.6230
973.50                    4.1136
974.00                    5.2979
974.50                    4.3236
975.00                    3.1549
975.50                    2.9561
976.00                    2.8811
976.50                    2.9031
977.00                    2.9512
977.50                    2.9681
978.00                    2.9422
978.50                    4.8892
979.00                   15.1683
979.50                   22.9525
980.00                   16.5082
980.50                    7.9035
981.00                    5.6828
981.50                    5.1421
982.00                    4.0142
982.50                    3.2852
983.00                    3.5199
983.50                    3.2758
984.00                    3.0120
984.50                    4.7526
985.00                    6.9263
985.50                    5.3919
986.00                    3.2918
986.50                    3.1692
987.00                    9.8719
987.50                   16.6750
988.00                    9.6859
988.50                    3.0723
989.00                    4.2712
989.50                    6.8559
990.00                    6.7649
990.50                    4.1834
991.00                    6.7444
991.50                   14.0158
992.00                   13.4415
992.50                    6.2011
993.00                    2.9554
993.50                    3.0986
994.00                    6.8237
994.50                   15.8101
995.00                   18.0216
995.50                   13.3385
996.00                   16.2343
996.50                   16.1677
997.00                    8.4666
997.50                    5.1431
998.00                    4.0829
998.50                    3.0120
999.00                    2.9406
999.50                    3.3542
1000.00                   4.3640
1000.50                   4.6209
1001.00                  12.4008
1001.50                  21.9929
1002.00                  14.7082
1002.50                   8.0708
1003.00                   8.0878
1003.50                   5.0170
1004.00                   4.0416
1004.50                   5.1076
1005.00                   4.2224
1005.50                   3.6999
1006.00                   5.4584
1006.50                   6.7158
1007.00                   5.8562
1007.50                   4.6848
1008.00                   8.3519
1008.50                  12.9428
1009.00                   8.0016
1009.50                   3.2044
1010.00                   4.7878
1010.50                   6.7868
1011.00                   5.3282
1011.50                   3.2741
1012.00                   7.1792
1012.50                  13.4592
1013.00                  10.8931
1013.50                   5.0208
1014.00                   3.2037
1014.50                   3.4437
1015.00                   5.7034
1015.50                   8.7128
1016.00                   8.4165
1016.50                   6.3544
1017.00                  13.0896
1017.50                  20.7828
1018.00                  13.3840
1018.50                  10.4769
1019.00                  16.6724
1019.50                  15.1123
1020.00                   9.8777
1020.50                  11.6152
1021.00                  19.9544
1021.50                  23.5318
1022.00                  12.1532
1022.50                   6.9983
1023.00                  12.3404
1023.50                  11.4931
1024.00                   5.5675
1024.50                   2.8401
1025.00                   2.8392
1025.50                   2.8372
1026.00                   2.8384
1026.50                   2.9269
1027.00                   3.5645
1027.50                   4.0526
1028.00                   6.2460
1028.50                  35.5500
1029.00                  63.3237
1029.50                  42.0959
1030.00                  21.3721
1030.50                  12.7551
1031.00                   8.1141
1031.50                   7.4286
1032.00                   4.2590
1032.50                   3.8609
1033.00                   4.6216
1033.50                   3.7671
1034.00                   3.2968
1034.50                   8.9574
1035.00                  15.0508
1035.50                   9.6870
1036.00                   3.7115
1036.50                   3.0044
1037.00                  20.1861
1037.50                  40.0327
1038.00                  23.0982
1038.50                   4.2463
1039.00                   3.2379
1039.50                  10.2672
1040.00                  16.7982
1040.50                   9.3941
1041.00                   2.8405
1041.50                  19.5308
1042.00                  40.4783
1042.50                  26.1477
1043.00                   6.2377
1043.50                   2.9726
1044.00                   2.8063
1044.50                   4.1377
1045.00                   9.6212
1045.50                  12.4532
1046.00                   6.7881
1046.50                  11.8102
1047.00                  25.5117
1047.50                  20.1780
1048.00                   6.8055
1048.50                   2.7529
1049.00                   2.7504
1049.50                   2.7665
1050.00                   2.7912
1050.50                   4.6672
1051.00                   7.7262
1051.50                   6.8422
1052.00                   6.6698
1052.50                  12.0749
1053.00                  12.6781
1053.50                   6.1615
1054.00                   2.7327
1054.50                   2.7310
1055.00                   2.7292
1055.50                   2.7274
1056.00                   2.7256
1056.50                   2.7326
1057.00                   3.8412
1057.50                   5.0586
1058.00                   4.3193
1058.50                   5.4738
1059.00                   7.0354
1059.50                   4.6269
1060.00                   2.7288
1060.50                   2.7245
1061.00                   2.7128
1061.50                   2.7056
1062.00                   2.7036
1062.50                   2.7014
1063.00                   2.6994
1063.50                   2.7616
1064.00                   3.1147
1064.50                   3.3615
1065.00                   3.6024
1065.50                   3.9693
1066.00                   3.3461
1066.50                   2.7147
1067.00                   2.6842
1067.50                   2.6809
1068.00                   2.8364
1068.50                   3.8504
1069.00                   5.1205
1069.50                   7.1146
1070.00                   9.4418
1070.50                   8.8758
1071.00                  12.3075
1071.50                  16.3763
1072.00                  12.2296
1072.50                  17.6805
1073.00                  27.7217
1073.50                  19.0105
1074.00                  10.4615
1074.50                  14.4617
1075.00                  25.8142
1075.50                  32.6260
1076.00                  15.8530
1076.50                   2.7516
1077.00                   8.0479
1077.50                  13.5802
1078.00                   8.1896
1078.50                   2.8077
1079.00                   2.6557
1079.50                   2.6691
1080.00                   2.6711
1080.50                   2.6739
1081.00                   2.6485
1081.50                   2.6250
1082.00                   2.6272
1082.50                   8.0736
1083.00                  51.2318
1083.50                  86.0516
1084.00                  57.0552
1084.50                  32.4450
1085.00                  17.1445
1085.50                   8.6773
1086.00                  12.4876
1086.50                   7.1661
1087.00                   2.9447
1087.50                   4.4587
1088.00                   5.5320
1088.50                   3.8972
1089.00                   4.0641
1089.50                  12.5921
1090.00                  18.8421
1090.50                  10.0911
1091.00                   2.8813
1091.50                   2.5959
1092.00                  25.0261
1092.50                  53.3163
1093.00                  36.3260
1093.50                   8.3290
1094.00                   2.6297
1094.50                  11.2102
1095.00                  22.2038
1095.50                  15.2783
1096.00                   4.4581
1096.50                   2.8480
1097.00                  31.9148
1097.50                  63.0098
1098.00                  33.1161
1098.50                   3.7417
1099.00                   2.5256
1099.50                   2.5006
1100.00                   3.1176
