# sky background 0.3-1.0um
# BRIGHT optical sky - 100%ile conditions (day 14)
#AM=1.0
#
#derived from sky spectrum with constant slope to match assumed photometric background
#increasingly poor model at very bright sky (day14);  patched to near-IR background at 920nm
#
#1 March 2001 : Phil Puxley

#nm         phot/s/nm/arcsec^2/m^2
320.00                    0.0000
349.99                    0.0000
350.17                   16.3580
350.43                   16.3513
350.70                   16.3446
350.96                   16.3379
351.23                   16.3312
351.49                   16.3245
351.76                   16.3178
352.02                   16.3111
352.29                   16.3044
352.55                   16.2977
352.82                   16.2910
353.08                   16.2843
353.35                   16.2776
353.62                   16.2709
353.88                   16.2642
354.15                   16.2575
354.41                   16.2508
354.68                   16.2440
354.94                   16.2373
355.21                   16.2306
355.47                   16.2239
355.74                   16.2172
356.00                   16.2105
356.27                   16.2038
356.53                   16.1971
356.80                   16.1904
357.07                   16.1837
357.33                   16.1770
357.60                   16.1703
357.86                   16.1636
358.13                   16.1569
358.39                   16.1502
358.66                   16.1435
358.92                   16.1368
359.19                   16.1301
359.45                   16.1233
359.72                   16.1166
359.98                   16.1099
360.25                   16.1032
360.51                   16.0965
360.78                   16.0898
361.05                   16.0831
361.31                   16.0764
361.58                   16.0697
361.84                   16.0630
362.11                   16.0563
362.37                   16.0496
362.64                   16.0429
362.90                   16.0362
363.17                   16.0295
363.43                   16.0228
363.70                   16.0161
363.96                   16.0093
364.23                   16.0026
364.49                   15.9959
364.76                   15.9892
365.03                   15.9825
365.29                   15.9758
365.56                   15.9691
365.82                   15.9624
366.09                   15.9557
366.35                   15.9490
366.62                   15.9423
366.88                   15.9356
367.15                   15.9289
367.41                   15.9222
367.68                   15.9155
367.94                   15.9088
368.21                   15.9021
368.47                   15.8953
368.74                   15.8886
369.01                   15.8819
369.27                   15.8752
369.54                   15.8685
369.80                   15.8618
370.07                   15.8551
370.33                   15.8484
370.60                   15.8417
370.86                   15.8350
371.13                   15.8283
371.39                   15.8216
371.66                   15.8149
371.92                   15.8082
372.19                   15.8015
372.45                   15.7948
372.72                   15.7881
372.99                   15.7813
373.25                   15.7746
373.52                   15.7679
373.78                   15.7612
374.05                   15.7545
374.31                   15.7478
374.58                   15.7411
374.84                   15.7344
375.11                   15.7277
375.37                   15.7210
375.64                   15.7143
375.90                   15.7076
376.17                   15.7009
376.43                   15.6942
376.70                   15.6875
376.97                   15.6808
377.23                   15.6741
377.50                   15.6674
377.76                   15.6606
378.03                   15.6539
378.29                   15.6472
378.56                   15.6405
378.82                   15.6338
379.09                   15.6271
379.35                   15.6204
379.62                   15.6137
379.88                   15.6070
380.15                   15.6003
380.41                   15.5936
380.68                   15.5869
380.95                   15.5802
381.21                   15.5735
381.48                   15.5668
381.74                   15.5601
382.01                   15.5534
382.27                   15.5466
382.54                   15.5399
382.80                   15.5332
383.07                   15.5265
383.33                   15.5198
383.60                   15.5131
383.86                   15.5064
384.13                   15.4997
384.40                   15.4930
384.66                   15.4863
384.93                   15.4796
385.19                   15.4729
385.46                   15.4662
385.72                   15.4595
385.99                   15.4528
386.25                   15.4461
386.52                   15.4394
386.78                   15.4327
387.05                   15.4260
387.31                   15.4193
387.58                   15.4126
387.84                   15.4059
388.11                   15.3992
388.38                   15.3926
388.64                   15.3859
388.91                   15.3792
389.17                   15.3725
389.44                   15.3658
389.70                   15.3591
389.97                   15.3525
390.23                   15.3458
390.50                   15.3391
390.76                   15.3325
391.03                   15.3258
391.29                   15.3192
391.56                   15.3125
391.82                   15.3058
392.09                   15.2992
392.36                   15.2925
392.62                   15.2858
392.89                   15.2792
393.15                   15.2725
393.42                   15.2659
393.68                   15.2592
393.95                   15.2525
394.21                   15.2459
394.48                   15.2392
394.74                   15.2325
395.01                   15.2259
395.27                   15.2192
395.54                   15.2126
395.80                   15.2059
396.07                   15.1992
396.34                   15.1926
396.60                   15.1859
396.87                   15.1792
397.13                   15.1726
397.40                   15.1659
397.66                   15.1592
397.93                   15.1526
398.19                   15.1459
398.46                   15.1392
398.72                   15.1326
398.99                   15.1259
399.25                   15.1192
399.52                   15.1125
399.78                   15.1059
400.05                   15.0991
400.32                   15.0925
400.58                   15.0859
400.85                   15.0792
401.11                   15.0725
401.38                   15.0658
401.64                   15.0591
401.91                   15.0525
402.17                   15.0458
402.44                   15.0391
402.70                   15.0324
402.97                   15.0258
403.23                   15.0191
403.50                   15.0124
403.76                   15.0058
404.03                   14.9991
404.30                   14.9924
404.56                   14.9857
404.83                   14.9791
405.09                   14.9724
405.36                   14.9657
405.62                   14.9591
405.89                   14.9524
406.15                   14.9457
406.42                   14.9391
406.68                   14.9324
406.95                   14.9258
407.21                   14.9191
407.48                   14.9124
407.74                   14.9058
408.01                   14.8991
408.28                   14.8925
408.54                   14.8858
408.81                   14.8792
409.07                   14.8725
409.34                   14.8659
409.60                   14.8592
409.87                   14.8526
410.13                   14.8459
410.40                   14.8393
410.66                   14.8327
410.93                   14.8261
411.19                   14.8194
411.46                   14.8128
411.73                   14.8062
411.99                   14.7995
412.26                   14.7929
412.52                   14.7863
412.79                   14.7797
413.05                   14.7730
413.32                   14.7664
413.58                   14.7598
413.85                   14.7532
414.11                   14.7465
414.38                   14.7399
414.64                   14.7333
414.91                   14.7266
415.17                   14.7200
415.44                   14.7134
415.71                   14.7067
415.97                   14.7001
416.24                   14.6935
416.50                   14.6868
416.77                   14.6802
417.03                   14.6735
417.30                   14.6669
417.56                   14.6603
417.83                   14.6536
418.09                   14.6470
418.36                   14.6403
418.62                   14.6337
418.89                   14.6270
419.15                   14.6204
419.42                   14.6137
419.69                   14.6071
419.95                   14.6004
420.22                   14.5937
420.48                   14.5871
420.75                   14.5804
421.01                   14.5737
421.28                   14.5671
421.54                   14.5604
421.81                   14.5537
422.07                   14.5470
422.34                   14.5404
422.60                   14.5337
422.87                   14.5270
423.13                   14.5203
423.40                   14.5137
423.67                   14.5070
423.93                   14.5003
424.20                   14.4937
424.46                   14.4870
424.73                   14.4803
424.99                   14.4737
425.26                   14.4670
425.52                   14.4603
425.79                   14.4536
426.05                   14.4470
426.32                   14.4403
426.58                   14.4336
426.85                   14.4270
427.11                   14.4203
427.38                   14.4136
427.65                   14.4070
427.91                   14.4003
428.18                   14.3937
428.44                   14.3870
428.71                   14.3803
428.97                   14.3737
429.24                   14.3670
429.50                   14.3603
429.77                   14.3537
430.03                   14.3470
430.30                   14.3404
430.56                   14.3337
430.83                   14.3271
431.09                   14.3204
431.36                   14.3138
431.63                   14.3071
431.89                   14.3005
432.16                   14.2938
432.42                   14.2872
432.69                   14.2805
432.95                   14.2739
433.22                   14.2672
433.48                   14.2606
433.75                   14.2540
434.01                   14.2473
434.28                   14.2407
434.54                   14.2340
434.81                   14.2274
435.07                   14.2207
435.34                   14.2141
435.61                   14.2075
435.87                   14.2008
436.14                   14.1942
436.40                   14.1875
436.67                   14.1809
436.93                   14.1743
437.20                   14.1676
437.46                   14.1610
437.73                   14.1544
437.99                   14.1478
438.26                   14.1411
438.52                   14.1345
438.79                   14.1279
439.05                   14.1213
439.32                   14.1146
439.59                   14.1080
439.85                   14.1014
440.12                   14.0948
440.38                   14.0882
440.65                   14.0816
440.91                   14.0750
441.18                   14.0684
441.44                   14.0618
441.71                   14.0552
441.97                   14.0486
442.24                   14.0420
442.50                   14.0354
442.77                   14.0288
443.04                   14.0222
443.30                   14.0156
443.57                   14.0090
443.83                   14.0024
444.10                   13.9958
444.36                   13.9892
444.63                   13.9826
444.89                   13.9760
445.16                   13.9694
445.42                   13.9628
445.69                   13.9562
445.95                   13.9496
446.22                   13.9430
446.48                   13.9364
446.75                   13.9298
447.02                   13.9232
447.28                   13.9165
447.55                   13.9099
447.81                   13.9033
448.08                   13.8967
448.34                   13.8901
448.61                   13.8835
448.87                   13.8769
449.14                   13.8702
449.40                   13.8636
449.67                   13.8570
449.93                   13.8504
450.20                   13.8437
450.46                   13.8371
450.73                   13.8304
451.00                   13.8238
451.26                   13.8172
451.53                   13.8105
451.79                   13.8039
452.06                   13.7972
452.32                   13.7906
452.59                   13.7839
452.85                   13.7773
453.12                   13.7707
453.38                   13.7640
453.65                   13.7574
453.91                   13.7507
454.18                   13.7441
454.44                   13.7374
454.71                   13.7308
454.98                   13.7242
455.24                   13.7175
455.51                   13.7109
455.77                   13.7042
456.04                   13.6976
456.30                   13.6910
456.57                   13.6843
456.83                   13.6777
457.10                   13.6711
457.36                   13.6644
457.63                   13.6578
457.89                   13.6512
458.16                   13.6445
458.42                   13.6379
458.69                   13.6313
458.96                   13.6246
459.22                   13.6180
459.49                   13.6114
459.75                   13.6047
460.02                   13.5981
460.28                   13.5915
460.55                   13.5849
460.81                   13.5782
461.08                   13.5716
461.34                   13.5650
461.61                   13.5584
461.87                   13.5518
462.14                   13.5451
462.40                   13.5385
462.67                   13.5319
462.94                   13.5253
463.20                   13.5187
463.47                   13.5120
463.73                   13.5054
464.00                   13.4988
464.26                   13.4922
464.53                   13.4856
464.79                   13.4790
465.06                   13.4724
465.32                   13.4657
465.59                   13.4591
465.85                   13.4525
466.12                   13.4459
466.38                   13.4393
466.65                   13.4327
466.92                   13.4261
467.18                   13.4195
467.45                   13.4129
467.71                   13.4063
467.98                   13.3997
468.24                   13.3931
468.51                   13.3865
468.77                   13.3799
469.04                   13.3733
469.30                   13.3667
469.57                   13.3602
469.83                   13.3536
470.10                   13.3470
470.37                   13.3404
470.63                   13.3339
470.90                   13.3273
471.16                   13.3208
471.43                   13.3142
471.69                   13.3076
471.96                   13.3011
472.22                   13.2945
472.49                   13.2880
472.75                   13.2814
473.02                   13.2748
473.28                   13.2683
473.55                   13.2617
473.81                   13.2551
474.08                   13.2486
474.35                   13.2420
474.61                   13.2354
474.88                   13.2289
475.14                   13.2223
475.41                   13.2157
475.67                   13.2091
475.94                   13.2026
476.20                   13.1960
476.47                   13.1894
476.73                   13.1828
477.00                   13.1762
477.26                   13.1696
477.53                   13.1631
477.79                   13.1565
478.06                   13.1499
478.33                   13.1433
478.59                   13.1367
478.86                   13.1301
479.12                   13.1235
479.39                   13.1169
479.65                   13.1102
479.92                   13.1036
480.18                   13.0970
480.45                   13.0904
480.71                   13.0837
480.98                   13.0771
481.24                   13.0704
481.51                   13.0638
481.77                   13.0571
482.04                   13.0505
482.31                   13.0438
482.57                   13.0372
482.84                   13.0305
483.10                   13.0239
483.37                   13.0172
483.63                   13.0106
483.90                   13.0039
484.16                   12.9973
484.43                   12.9906
484.69                   12.9840
484.96                   12.9773
485.22                   12.9707
485.49                   12.9641
485.75                   12.9574
486.02                   12.9508
486.29                   12.9441
486.55                   12.9375
486.82                   12.9308
487.08                   12.9242
487.35                   12.9176
487.61                   12.9109
487.88                   12.9043
488.14                   12.8977
488.41                   12.8910
488.67                   12.8844
488.94                   12.8778
489.20                   12.8711
489.47                   12.8645
489.73                   12.8579
490.00                   12.8512
490.27                   12.8446
490.53                   12.8380
490.80                   12.8314
491.06                   12.8248
491.33                   12.8182
491.59                   12.8116
491.86                   12.8049
492.12                   12.7983
492.39                   12.7917
492.65                   12.7851
492.92                   12.7785
493.18                   12.7719
493.45                   12.7653
493.71                   12.7586
493.98                   12.7520
494.25                   12.7454
494.51                   12.7388
494.78                   12.7322
495.04                   12.7256
495.31                   12.7190
495.57                   12.7124
495.84                   12.7057
496.10                   12.6991
496.37                   12.6925
496.63                   12.6859
496.90                   12.6793
497.16                   12.6727
497.43                   12.6661
497.70                   12.6595
497.96                   12.6529
498.23                   12.6463
498.49                   12.6397
498.76                   12.6330
499.02                   12.6264
499.29                   12.6198
499.55                   12.6132
499.82                   12.6066
500.08                   12.6000
500.35                   12.5934
500.61                   12.5868
500.88                   12.5802
501.14                   12.5736
501.41                   12.5670
501.68                   12.5604
501.94                   12.5538
502.21                   12.5472
502.47                   12.5406
502.74                   12.5340
503.00                   12.5275
503.27                   12.5209
503.53                   12.5143
503.80                   12.5077
504.06                   12.5011
504.33                   12.4945
504.59                   12.4879
504.86                   12.4813
505.12                   12.4747
505.39                   12.4681
505.66                   12.4615
505.92                   12.4549
506.19                   12.4483
506.45                   12.4417
506.72                   12.4351
506.98                   12.4285
507.25                   12.4219
507.51                   12.4153
507.78                   12.4087
508.04                   12.4021
508.31                   12.3955
508.57                   12.3889
508.84                   12.3823
509.10                   12.3757
509.37                   12.3691
509.64                   12.3625
509.90                   12.3560
510.17                   12.3495
510.43                   12.3429
510.70                   12.3362
510.96                   12.3302
511.23                   12.3207
511.49                   12.3180
511.76                   12.3135
512.02                   12.3063
512.29                   12.2890
512.55                   12.2698
512.82                   12.2635
513.08                   12.2691
513.35                   12.2697
513.62                   12.2595
513.88                   12.2455
514.15                   12.2409
514.41                   12.2355
514.68                   12.2313
514.94                   12.2206
515.21                   12.2119
515.47                   12.1997
515.74                   12.1905
516.00                   12.1857
516.27                   12.1721
516.53                   12.1597
516.80                   12.1488
517.06                   12.1562
517.33                   12.1559
517.60                   12.1585
517.86                   12.1394
518.13                   12.1386
518.39                   12.1332
518.66                   12.1434
518.92                   12.1312
519.19                   12.1358
519.45                   12.2367
519.72                   12.3581
519.98                   12.3886
520.25                   12.2831
520.51                   12.1525
520.78                   12.0972
521.04                   12.0738
521.31                   12.0649
521.58                   12.0603
521.84                   12.0606
522.11                   12.0663
522.37                   12.0466
522.64                   12.0274
522.90                   12.0117
523.17                   12.0124
523.43                   12.0121
523.70                   12.0107
523.96                   12.0061
524.23                   11.9966
524.49                   11.9845
524.76                   11.9729
525.03                   11.9746
525.29                   11.9723
525.56                   11.9708
525.82                   11.9512
526.09                   11.9292
526.35                   11.9130
526.62                   11.9067
526.88                   11.9105
527.15                   11.9211
527.41                   11.9290
527.68                   11.9265
527.94                   11.9251
528.21                   11.9055
528.47                   11.8858
528.74                   11.8638
529.01                   11.8634
529.27                   11.8660
529.54                   11.8671
529.80                   11.8624
530.07                   11.8563
530.33                   11.8449
530.60                   11.8375
530.86                   11.8472
531.13                   11.8432
531.39                   11.8354
531.66                   11.8105
531.92                   11.8004
532.19                   11.7909
532.45                   11.7930
532.72                   11.8028
532.99                   11.8170
533.25                   11.8017
533.52                   11.7774
533.78                   11.7519
534.05                   11.7458
534.31                   11.7450
534.58                   11.7417
534.84                   11.7313
535.11                   11.7178
535.37                   11.7102
535.64                   11.7112
535.90                   11.7100
536.17                   11.7021
536.43                   11.6902
536.70                   11.6818
536.97                   11.6731
537.23                   11.6748
537.50                   11.6650
537.76                   11.6526
538.03                   11.6319
538.29                   11.6229
538.56                   11.6194
538.82                   11.6254
539.09                   11.6157
539.35                   11.6081
539.62                   11.5948
539.88                   11.5918
540.15                   11.5880
540.41                   11.5798
540.68                   11.5821
540.95                   11.5704
541.21                   11.5726
541.48                   11.5554
541.74                   11.5557
542.01                   11.5366
542.27                   11.5278
542.54                   11.5194
542.80                   11.5183
543.07                   11.5228
543.33                   11.5250
543.60                   11.5182
543.86                   11.5130
544.13                   11.4907
544.39                   11.4895
544.66                   11.4784
544.93                   11.4847
545.19                   11.4770
545.46                   11.4688
545.72                   11.4598
545.99                   11.4574
546.25                   11.4569
546.52                   11.4536
546.78                   11.4406
547.05                   11.4184
547.31                   11.3984
547.58                   11.3928
547.84                   11.3950
548.11                   11.3887
548.37                   11.3881
548.64                   11.3873
548.91                   11.3986
549.17                   11.3884
549.44                   11.3893
549.70                   11.3790
549.97                   11.3760
550.23                   11.3637
550.50                   11.3580
550.76                   11.3511
551.03                   11.3424
551.29                   11.3322
551.56                   11.3243
551.82                   11.3163
552.09                   11.3031
552.36                   11.2855
552.62                   11.2747
552.89                   11.2722
553.15                   11.2851
553.42                   11.2828
553.68                   11.2859
553.95                   11.2837
554.21                   11.2982
554.48                   11.2962
554.74                   11.2836
555.01                   11.2648
555.27                   11.2514
555.54                   11.2386
555.80                   11.2362
556.07                   11.2430
556.34                   11.2476
556.60                   11.2420
556.87                   11.2479
557.13                   13.2044
557.40                   15.9354
557.66                   17.8259
557.93                   16.3141
558.19                   13.5686
558.46                   11.6413
558.72                   11.1820
558.99                   11.1695
559.25                   11.1582
559.52                   11.1407
559.78                   11.1341
560.05                   11.1447
560.32                   11.1482
560.58                   11.1472
560.85                   11.1174
561.11                   11.0848
561.38                   11.0783
561.64                   11.0917
561.91                   11.1181
562.17                   11.1230
562.44                   11.1127
562.70                   11.0807
562.97                   11.0513
563.23                   11.0292
563.50                   11.0293
563.76                   11.0312
564.03                   11.0297
564.30                   11.0323
564.56                   11.0375
564.83                   11.0291
565.09                   11.0056
565.36                   10.9793
565.62                   10.9723
565.89                   10.9725
566.15                   10.9761
566.42                   10.9826
566.68                   10.9855
566.95                   10.9733
567.21                   10.9600
567.48                   10.9486
567.74                   10.9506
568.01                   10.9331
568.28                   10.9209
568.54                   10.8991
568.81                   10.9039
569.07                   10.9120
569.34                   10.9213
569.60                   10.9268
569.87                   10.9087
570.13                   10.9012
570.40                   10.8771
570.66                   10.8745
570.93                   10.8574
571.19                   10.8531
571.46                   10.8502
571.72                   10.8608
571.99                   10.8630
572.26                   10.8597
572.52                   10.8399
572.79                   10.8316
573.05                   10.8205
573.32                   10.8154
573.58                   10.8047
573.85                   10.7926
574.11                   10.7928
574.38                   10.7896
574.64                   10.7861
574.91                   10.7662
575.17                   10.7545
575.44                   10.7423
575.70                   10.7466
575.97                   10.7312
576.24                   10.7264
576.50                   10.7195
576.77                   10.7243
577.03                   10.7197
577.30                   10.7089
577.56                   10.6977
577.83                   10.6913
578.09                   10.6818
578.36                   10.6756
578.62                   10.6595
578.89                   10.6515
579.15                   10.6470
579.42                   10.6427
579.68                   10.6438
579.95                   10.6403
580.22                   10.6488
580.48                   10.6432
580.75                   10.6296
581.01                   10.6115
581.28                   10.6060
581.54                   10.6061
581.81                   10.6170
582.07                   10.6217
582.34                   10.6186
582.60                   10.5975
582.87                   10.5897
583.13                   10.5824
583.40                   10.5758
583.67                   10.5678
583.93                   10.5759
584.20                   10.6553
584.46                   10.6406
584.73                   10.6231
584.99                   10.5326
585.26                   10.5336
585.52                   10.5168
585.79                   10.5176
586.05                   10.5472
586.32                   10.6219
586.58                   10.6596
586.85                   10.6447
587.11                   10.5810
587.38                   10.5534
587.65                   10.5304
587.91                   10.5226
588.18                   10.5290
588.44                   11.0001
588.71                   11.5168
588.97                   11.9317
589.24                   11.7430
589.50                   11.3912
589.77                   10.9763
590.03                   10.6878
590.30                   10.5204
590.56                   10.4940
590.83                   10.4989
591.09                   10.5254
591.36                   10.5416
591.63                   10.5281
591.89                   10.4948
592.16                   10.4647
592.42                   10.4483
592.69                   10.4578
592.95                   10.4924
593.22                   10.5275
593.48                   10.4804
593.75                   10.4064
594.01                   10.3523
594.28                   10.3653
594.54                   10.3749
594.81                   10.4042
595.07                   10.4277
595.34                   10.4235
595.61                   10.3765
595.87                   10.3157
596.14                   10.2908
596.40                   10.2841
596.67                   10.3031
596.93                   10.3216
597.20                   10.3395
597.46                   10.3525
597.73                   10.3387
597.99                   10.3029
598.26                   10.2556
598.52                   10.2392
598.79                   10.2459
599.05                   10.2354
599.32                   10.2196
599.59                   10.2084
599.85                   10.2090
600.12                   10.2187
600.38                   10.2036
600.65                   10.1888
600.91                   10.1596
601.18                   10.1420
601.44                   10.1241
601.71                   10.1113
601.97                   10.0984
602.24                   10.0898
602.50                   10.0932
602.77                   10.0984
603.03                   10.0965
603.30                   10.0841
603.57                   10.0700
603.83                   10.0598
604.10                   10.0523
604.36                   10.0455
604.63                   10.0328
604.89                   10.0151
605.16                    9.9965
605.42                    9.9825
605.69                    9.9771
605.95                    9.9770
606.22                    9.9812
606.48                    9.9794
606.75                    9.9644
607.01                    9.9555
607.28                    9.9416
607.55                    9.9440
607.81                    9.9276
608.08                    9.9241
608.34                    9.9114
608.61                    9.9058
608.87                    9.8998
609.14                    9.8934
609.40                    9.8965
609.67                    9.8927
609.93                    9.8879
610.20                    9.8770
610.46                    9.8733
610.73                    9.8649
611.00                    9.8563
611.26                    9.8369
611.53                    9.8292
611.79                    9.8112
612.06                    9.8015
612.32                    9.7982
612.59                    9.7964
612.85                    9.7919
613.12                    9.7753
613.38                    9.7957
613.65                    9.8154
613.91                    9.8346
614.18                    9.8135
614.44                    9.7975
614.71                    9.7681
614.98                    9.7566
615.24                    9.7730
615.51                    9.8076
615.77                    9.8048
616.04                    9.7579
616.30                    9.7270
616.57                    9.7419
616.83                    9.7675
617.10                   10.0629
617.36                   10.0461
617.63                   10.0178
617.89                    9.6915
618.16                    9.6649
618.42                    9.6452
618.69                    9.6356
618.96                    9.6266
619.22                    9.6271
619.49                    9.6219
619.75                    9.6415
620.02                    9.6622
620.28                    9.6682
620.55                    9.6396
620.81                    9.6117
621.08                    9.6039
621.34                    9.6064
621.61                    9.6245
621.87                    9.6458
622.14                    9.6386
622.40                    9.5985
622.67                    9.5690
622.94                    9.6211
623.20                    9.7727
623.47                    9.8940
623.73                    9.9169
624.00                    9.8087
624.26                    9.7000
624.53                    9.5994
624.79                    9.5462
625.06                    9.5488
625.32                    9.6411
625.59                    9.7484
625.85                    9.7759
626.12                    9.7155
626.38                    9.6367
626.65                    9.5868
626.92                    9.5495
627.18                    9.5185
627.45                    9.5075
627.71                    9.5071
627.98                    9.5136
628.24                    9.5538
628.51                    9.6286
628.77                    9.6530
629.04                    9.6407
629.30                   10.7590
629.57                   16.3620
629.83                   21.7450
630.10                   24.5348
630.36                   18.9681
630.63                   13.6052
630.90                    9.5791
631.16                    9.4589
631.43                    9.3719
631.69                    9.4043
631.96                    9.4590
632.22                    9.4622
632.49                    9.5132
632.75                    9.5388
633.02                    9.5842
633.28                    9.4787
633.55                    9.3650
633.81                    9.2798
634.08                    9.2682
634.34                    9.3004
634.61                    9.3164
634.88                    9.3380
635.14                    9.3700
635.41                    9.4335
635.67                    9.9902
635.94                   11.5859
636.20                   13.2699
636.47                   13.8210
636.73                   12.1517
637.00                   10.3531
637.26                    9.2070
637.53                    9.2111
637.79                    9.2229
638.06                    9.2305
638.33                    9.2391
638.59                    9.2343
638.86                    9.2056
639.12                    9.1596
639.39                    9.1284
639.65                    9.1110
639.92                    9.1119
640.18                    9.1025
640.45                    9.1058
640.71                    9.0925
640.98                    9.0897
641.24                    9.0801
641.51                    9.0843
641.77                    9.0935
642.04                    9.0987
642.31                    9.0844
642.57                    9.0579
642.84                    9.0384
643.10                    9.0282
643.37                    9.0136
643.63                    8.9936
643.90                    8.9819
644.16                    8.9796
644.43                    8.9840
644.69                    8.9881
644.96                    8.9985
645.22                    9.0206
645.49                    9.0238
645.75                    9.0242
646.02                    9.0768
646.29                    9.1596
646.55                    9.2331
646.82                    9.2156
647.08                    9.1332
647.35                    9.0526
647.61                    8.9794
647.88                    8.9605
648.14                    8.9357
648.41                    8.9275
648.67                    8.9034
648.94                    8.8870
649.20                    8.8811
649.47                    8.8802
649.73                    8.8821
650.00                    8.8796
650.27                    8.8999
650.53                    8.8868
650.80                    8.8689
651.06                    8.8335
651.33                    8.8333
651.59                    8.8224
651.86                    8.8112
652.12                    8.8083
652.39                    8.8100
652.65                    8.8060
652.92                    8.7995
653.18                    8.7917
653.45                    8.7918
653.71                    8.7896
653.98                    8.7920
654.25                    8.7877
654.51                    8.7699
654.78                    8.7676
655.04                    8.8177
655.31                    8.8207
655.57                    8.8142
655.84                    8.7506
656.10                    8.7354
656.37                    8.7117
656.63                    8.7721
656.90                    8.7756
657.16                    8.7762
657.43                    8.7321
657.69                    8.7156
657.96                    8.7089
658.23                    8.6691
658.49                    8.6689
658.76                    8.6570
659.02                    8.6478
659.29                    8.6408
659.55                    8.6348
659.82                    8.6287
660.08                    8.6237
660.35                    8.6177
660.61                    8.6134
660.88                    8.6009
661.14                    8.6077
661.41                    8.5999
661.67                    8.5952
661.94                    8.5765
662.21                    8.5720
662.47                    8.5846
662.74                    8.5981
663.00                    8.5907
663.27                    8.5683
663.53                    8.5518
663.80                    8.5455
664.06                    8.5355
664.33                    8.5204
664.59                    8.5159
664.86                    8.5102
665.12                    8.5068
665.39                    8.5039
665.66                    8.5003
665.92                    8.4918
666.19                    8.4811
666.45                    8.4790
666.72                    8.4727
666.98                    8.4666
667.25                    8.4537
667.51                    8.4477
667.78                    8.4435
668.04                    8.4375
668.31                    8.4314
668.57                    8.4234
668.84                    8.4173
669.10                    8.4113
669.37                    8.4054
669.64                    8.4090
669.90                    8.4055
670.17                    8.3993
670.43                    8.3982
670.70                    8.4095
670.96                    8.4314
671.23                    8.4205
671.49                    8.4094
671.76                    8.3908
672.02                    8.3778
672.29                    8.3680
672.55                    8.3506
672.82                    8.3414
673.08                    8.3241
673.35                    8.3450
673.62                    8.3389
673.88                    8.3329
674.15                    8.2971
674.41                    8.2924
674.68                    8.2874
674.94                    8.2813
675.21                    8.2741
675.47                    8.2700
675.74                    8.2627
676.00                    8.2598
676.27                    8.2528
676.53                    8.2464
676.80                    8.2491
677.06                    8.2589
677.33                    8.2530
677.60                    8.2365
677.86                    8.2125
678.13                    8.2063
678.39                    8.1984
678.66                    8.1924
678.92                    8.2070
679.19                    8.2011
679.45                    8.1989
679.72                    8.1914
679.98                    8.1852
680.25                    8.1750
680.51                    8.1496
680.78                    8.1436
681.04                    8.1375
681.31                    8.1314
681.58                    8.1254
681.84                    8.1193
682.11                    8.1132
682.37                    8.1071
682.64                    8.1203
682.90                    8.1193
683.17                    8.4534
683.43                    8.4283
683.70                    8.4174
683.96                    8.0854
684.23                    8.0793
684.49                    8.0733
684.76                    8.0525
685.02                    8.0464
685.29                    8.0403
685.56                    8.0342
685.82                    8.0281
686.09                    8.5242
686.35                    8.5186
686.62                    8.5130
686.88                    8.0144
687.15                    8.0083
687.41                    8.0022
687.68                    7.9854
687.94                    7.9973
688.21                    7.9913
688.47                    7.9863
688.74                    7.9621
689.00                    7.9591
689.27                    7.9520
689.54                    7.9489
689.80                    8.1985
690.07                    8.1929
690.33                    8.1896
690.60                    7.9236
690.86                    7.9176
691.13                    7.9062
691.39                    7.9001
691.66                    7.9063
691.92                    7.9002
692.19                    7.8941
692.45                    7.8757
692.72                    7.8696
692.99                    7.8634
693.25                    7.8657
693.52                    7.8687
693.78                    7.8760
694.05                    7.8630
694.31                    7.8492
694.58                    7.8297
694.84                    7.8361
695.11                    7.8350
695.37                    7.8482
695.64                    7.8571
695.90                    7.8607
696.17                    7.8402
696.43                    7.8079
696.70                    7.8487
696.97                    7.8478
697.23                    7.8497
697.50                    7.7845
697.76                    7.7692
698.03                    7.7521
698.29                    7.7417
698.56                    7.7425
698.82                    7.7387
699.09                    7.7326
699.35                    7.7266
699.62                    7.7223
699.88                    7.7288
700.15                    7.7181
700.41                    7.7077
700.68                    7.6889
700.95                    7.6793
701.21                    7.6731
701.48                    7.6669
701.74                    7.6607
702.01                    7.6545
702.27                    7.6483
702.54                    7.6426
702.80                    7.6397
703.07                    7.6350
703.33                    7.6284
703.60                    7.6232
703.86                    7.6579
704.13                    7.6667
704.39                    7.6566
704.66                    7.6094
704.93                    7.6002
705.19                    7.5936
705.46                    7.5860
705.72                    7.5805
705.99                    7.5869
706.25                    7.5808
706.52                    7.5651
706.78                    7.5707
707.05                    7.5847
707.31                    7.5754
707.58                    7.5545
707.84                    7.5370
708.11                    7.5308
708.37                    7.5150
708.64                    7.5002
708.91                    7.4943
709.17                    7.4881
709.44                    7.4884
709.70                    7.4835
709.97                    7.4773
710.23                    7.4643
710.50                    7.4855
710.76                    7.4898
711.03                    7.4838
711.29                    7.4487
711.56                    7.4321
711.82                    7.4257
712.09                    7.4196
712.35                    7.4134
712.62                    7.4072
712.89                    7.4067
713.15                    7.4006
713.42                    7.3944
713.68                    7.3928
713.95                    7.3866
714.21                    7.3805
714.48                    7.3641
714.74                    7.3579
715.01                    7.3518
715.27                    7.3487
715.54                    7.3514
715.80                    7.3453
716.07                    7.3361
716.33                    7.3255
716.60                    7.3194
716.87                    7.3132
717.13                    7.3026
717.40                    7.2964
717.66                    7.2938
717.93                    7.2876
718.19                    7.2815
718.46                    7.2718
718.72                    7.2657
718.99                    7.2596
719.25                    7.2534
719.52                    7.2473
719.78                    7.2412
720.05                    7.2351
720.32                    7.2290
720.58                    7.2229
720.85                    7.2168
721.11                    7.2107
721.38                    7.2047
721.64                    7.1986
721.91                    7.1925
722.17                    7.1886
722.44                    7.1825
722.70                    7.1787
722.97                    7.1704
723.23                    7.1643
723.50                    7.1560
723.76                    7.2646
724.03                    7.2588
724.30                    7.3495
724.56                    7.2408
724.83                    7.2377
725.09                    7.1347
725.36                    7.1205
725.62                    7.1115
725.89                    7.1055
726.15                    7.0952
726.42                    7.0892
726.68                    7.0913
726.95                    7.0852
727.21                    7.1731
727.48                    7.1590
727.74                    7.1531
728.01                    7.0527
728.28                    7.0530
728.54                    7.0470
728.81                    7.0432
729.07                    7.0327
729.34                    7.2067
729.60                    7.1987
729.87                    7.1910
730.13                    7.0318
730.40                    7.0264
730.66                    7.0204
730.93                    7.0135
731.19                    7.0069
731.46                    7.0286
731.72                    7.0289
731.99                    7.0230
732.26                    6.9891
732.52                    6.9496
732.79                    6.9471
733.05                    6.9410
733.32                    6.9350
733.58                    6.9252
733.85                    8.6611
734.11                    8.6713
734.38                    8.6680
734.64                    6.9199
734.91                    6.9012
735.17                    6.8951
735.44                    6.8985
735.70                    6.8915
735.97                    6.8910
736.24                    6.8702
736.50                    6.8702
736.77                    6.8584
737.03                    6.8721
737.30                    6.8626
737.56                    6.8749
737.83                    6.8533
738.09                    6.8672
738.36                    6.8430
738.62                    6.8333
738.89                    6.8050
739.15                    6.7987
739.42                    6.7921
739.68                    6.7902
739.95                    6.7919
740.22                    6.7861
740.48                    6.7761
740.75                    6.7719
741.01                    6.8026
741.28                    6.7982
741.54                    6.8136
741.81                    6.7703
742.07                    6.7707
742.34                    6.7333
742.60                    6.7508
742.87                    6.7356
743.13                    6.7375
743.40                    6.7078
743.66                    6.7180
743.93                    6.7088
744.20                    6.7053
744.46                    6.6828
744.73                    6.6767
744.99                    6.6816
745.26                    6.6756
745.52                    6.6661
745.79                    6.6603
746.05                    6.6562
746.32                    6.6618
746.58                    6.6534
746.85                    6.8354
747.11                    6.8591
747.38                    6.8423
747.64                    6.7458
747.91                    6.7112
748.18                    6.7262
748.44                    6.6225
748.71                    6.6090
748.97                    6.5812
749.24                    6.5761
749.50                    6.5777
749.77                    6.5901
750.03                    6.5971
750.30                    6.5777
750.56                    6.5704
750.83                    6.6344
751.09                    6.6309
751.36                    6.6609
751.63                    6.5742
751.89                    6.5684
752.16                    6.8898
752.42                    6.8835
752.69                    6.8848
752.95                    6.5247
753.22                    6.5353
753.48                    6.5273
753.75                    6.5486
754.01                    6.5381
754.28                    6.5259
754.54                    6.4651
754.81                    6.4671
755.07                    6.4991
755.34                    6.5014
755.61                    6.4715
755.87                    6.4313
756.14                    6.4354
756.40                    6.4420
756.67                    6.4316
756.93                    7.0578
757.20                    7.1249
757.46                    7.1177
757.73                    6.4634
757.99                    6.3773
758.26                    6.3792
758.52                    6.3693
758.79                    6.3567
759.05                    6.3476
759.32                    6.3416
759.59                    6.5315
759.85                    6.5210
760.12                    6.5151
760.38                    6.3132
760.65                    6.3073
760.91                    6.3014
761.18                    6.3037
761.44                    6.2978
761.71                    6.3034
761.97                    6.3082
762.24                    6.3024
762.50                    6.2867
762.77                    6.2619
763.03                    6.2634
763.30                    6.2558
763.57                    6.2515
763.83                    6.2382
764.10                    6.2323
764.36                    6.2537
764.63                    6.2479
764.89                    6.2420
765.16                    6.2074
765.42                    6.2015
765.69                    6.1957
765.95                    6.3909
766.22                    6.3852
766.48                    6.3795
766.75                    6.1723
767.01                    6.1705
767.28                    6.1646
767.55                    6.1588
767.81                    6.1517
768.08                    6.1459
768.34                    6.1410
768.61                    6.1325
768.87                    6.1510
769.14                    6.1442
769.40                    6.1384
769.67                    6.1441
769.93                    6.1435
770.20                    6.1377
770.46                    6.1263
770.73                    6.1352
770.99                    7.9101
771.26                    8.2426
771.53                    8.5973
771.79                    6.8467
772.06                    6.4907
772.32                    6.4707
772.59                    6.4291
772.85                    6.4121
773.12                    6.0652
773.38                    6.0594
773.65                    6.0464
773.91                    6.0196
774.18                    6.0138
774.44                    6.0116
774.71                    6.0198
774.97                    6.0336
775.24                    6.0243
775.51                    6.0004
775.77                    6.0031
776.04                    5.9973
776.30                    5.9927
776.57                    5.9590
776.83                    5.9533
777.10                    6.0106
777.36                    6.0049
777.63                    5.9992
777.89                    5.9292
778.16                    5.9280
778.42                    5.9522
778.69                    5.9575
778.96                    5.9882
779.22                    5.9560
779.49                    5.9393
779.75                    5.8926
780.02                    5.9002
780.28                    5.8944
780.55                    6.2569
780.81                    6.2343
781.08                    6.2284
781.34                    5.8757
781.61                    5.9190
781.87                    9.7705
782.14                    9.7417
782.40                    9.6849
782.67                    5.8331
782.94                    5.8274
783.20                    5.8218
783.47                    5.8101
783.73                    5.8044
784.00                    5.7988
784.26                    5.7923
784.53                    5.7866
784.79                    5.7867
785.06                    8.6236
785.32                    8.6162
785.59                    8.6033
785.85                    5.7583
786.12                    5.7527
786.38                    5.7470
786.65                    5.7413
786.92                    5.7357
787.18                    5.7300
787.45                    5.7244
787.71                    5.7188
787.98                    5.7132
788.24                    5.7076
788.51                    5.7106
788.77                    5.7936
789.04                    5.7880
789.30                    5.7738
789.57                    5.6796
789.83                    5.6740
790.10                    5.6684
790.36                    5.6629
790.63                    5.6573
790.90                    5.6536
791.16                    5.6480
791.43                    5.6425
791.69                    5.6675
791.96                    5.6619
792.22                    5.6564
792.49                    5.6184
792.75                    5.6379
793.02                    5.6324
793.28                    5.6268
793.55                    5.5963
793.81                    5.5907
794.08                    5.5858
794.34                    5.6174
794.61                    5.6374
794.88                    5.6312
795.14                    5.5938
795.41                    5.5628
795.67                    5.5573
795.94                    5.5466
796.20                    8.1982
796.47                    8.1934
796.73                    8.1887
797.00                    5.5248
797.26                    5.5239
797.53                    5.5185
797.79                    5.5130
798.06                    5.5030
798.32                    5.4975
798.59                    5.4921
798.86                    5.4957
799.12                    5.5158
799.39                    5.5104
799.65                    5.4961
799.92                    5.4663
800.18                    5.4656
800.45                    5.4603
800.71                    5.4536
800.98                    5.4436
801.24                    5.5069
801.51                    5.5016
801.77                    5.6087
802.04                    5.5434
802.30                    7.0653
802.57                    7.0510
802.84                    7.0400
803.10                    5.5065
803.37                    5.4014
803.63                    5.4039
803.90                    5.3938
804.16                    5.3873
804.43                    5.3741
804.69                    5.4078
804.96                    5.6235
805.22                    5.6315
805.49                    5.6077
805.75                    5.4151
806.02                    5.3970
806.29                    5.3835
806.55                    5.3730
806.82                    5.3996
807.08                    5.3824
807.35                    5.3724
807.61                    5.3668
807.88                    5.4023
808.14                    5.4650
808.41                    5.4299
808.67                    5.3840
808.94                    5.2861
809.20                    5.2825
809.47                    5.2921
809.73                    5.2871
810.00                    5.6109
810.27                    5.5908
810.53                    5.6229
810.80                    5.2906
811.06                    5.3009
811.33                    5.2648
811.59                    5.2680
811.86                    5.2698
812.12                    5.2605
812.39                    5.2893
812.65                    5.2691
812.92                    5.2875
813.18                    5.2406
813.45                    5.2364
813.71                    5.2330
813.98                    5.2371
814.25                    5.2328
814.51                    5.2607
814.78                    5.4472
815.04                    5.4386
815.31                    5.4000
815.57                    5.2182
815.84                    5.2073
816.10                    5.1779
816.37                    5.2481
816.63                    5.2907
816.90                    5.3176
817.16                    5.2110
817.43                    5.1600
817.69                    5.1374
817.96                    5.1350
818.23                    5.1307
818.49                    5.2267
818.76                    5.2478
819.02                    5.2726
819.29                    5.2476
819.55                    5.2086
819.82                    5.1706
820.08                    5.0671
820.35                    5.0619
820.61                    5.0758
820.88                    5.0915
821.14                    5.0960
821.41                    5.0744
821.67                    5.0554
821.94                    5.0674
822.21                    5.0655
822.47                    5.0653
822.74                    5.0595
823.00                    5.0499
823.27                    5.0542
823.53                    5.0239
823.80                    5.0171
824.06                    4.9891
824.33                    5.0306
824.59                    5.0279
824.86                    5.0476
825.12                    4.9942
825.39                    5.0126
825.65                    5.0292
825.92                    5.0776
826.19                    5.1251
826.45                    5.0886
826.72                    5.0300
826.98                    4.9874
827.25                    4.9671
827.51                    5.1711
827.78                    5.1246
828.04                    5.1197
828.31                    4.9148
828.57                    7.8309
828.84                    7.8912
829.10                    7.8961
829.37                    5.5949
829.63                    7.0604
829.90                    7.0744
830.17                    6.4357
830.43                    4.9331
830.70                    4.8971
830.96                    4.8922
831.23                    4.8716
831.49                    4.9245
831.76                    4.9196
832.02                    4.8925
832.29                    4.8294
832.55                    4.8243
832.82                    4.8193
833.08                    4.8143
833.35                    4.8094
833.62                    4.8356
833.88                    4.8883
834.15                    5.7500
834.41                    5.7293
834.68                    5.7597
834.94                    4.8866
835.21                    4.8811
835.47                    4.7840
835.74                    4.7882
836.00                    4.7692
836.27                    4.8282
836.53                    4.8144
836.80                    4.8098
837.06                    4.7645
837.33                    4.7597
837.60                    4.7559
837.86                    4.7274
838.13                    4.8116
838.39                    4.8093
838.66                    4.8047
838.92                    4.7106
839.19                    4.7049
839.45                    4.7234
839.72                    4.7661
839.98                    4.7591
840.25                    4.7310
840.51                    4.8307
840.78                    4.8869
841.04                    4.8843
841.31                    4.7965
841.58                    4.7429
841.84                    4.7665
842.11                    4.7574
842.37                    4.8047
842.64                    4.8775
842.90                    4.8201
843.17                    4.8381
843.43                    4.7505
843.70                    4.7419
843.96                    4.6543
844.23                    4.6256
844.49                    4.6147
844.76                    4.6070
845.02                    4.6302
845.29                    4.6248
845.56                    4.6203
845.82                    4.5880
846.09                    4.5835
846.35                    4.5791
846.62                    4.6100
846.88                    4.6066
847.15                    4.6021
847.41                    4.5621
847.68                    4.5567
847.94                    4.5522
848.21                    4.5478
848.47                    4.5434
848.74                    4.5390
849.00                    4.5430
849.27                    4.5387
849.54                    4.5942
849.80                    4.5815
850.07                    4.5950
850.33                    4.5576
850.60                    4.5561
850.86                    4.5342
851.13                    4.5509
851.39                    4.5459
851.66                    4.5447
851.92                    4.5259
852.19                    4.5598
852.45                    4.5526
852.72                    4.5142
852.98                    4.4696
853.25                    4.4654
853.52                    4.4611
853.78                    4.4568
854.05                    4.4526
854.31                    4.4483
854.58                    4.8755
854.84                    4.8717
855.11                    4.8678
855.37                    4.4311
855.64                    4.4269
855.90                    4.4227
856.17                    4.4185
856.43                    4.4143
856.70                    4.4102
856.96                    4.4060
857.23                    4.4018
857.50                    4.3977
857.76                    4.3935
858.03                    4.3894
858.29                    4.3853
858.56                    4.5662
858.82                    4.5624
859.09                    4.5586
859.35                    4.4086
859.62                    4.4046
859.88                    4.4005
860.15                    4.3565
860.41                    4.3525
860.68                    4.3484
860.95                    4.3444
861.21                    4.3403
861.48                    4.3363
861.74                    4.3426
862.01                    4.7474
862.27                    4.7442
862.54                    5.5964
862.80                    5.1835
863.07                    5.4195
863.33                    4.5470
863.60                    4.5434
863.86                    4.3000
864.13                    4.2961
864.39                    4.6046
864.66                    4.6896
864.93                    4.6860
865.19                    4.6965
865.46                    4.6040
865.72                    4.6004
865.99                    4.2685
866.25                    5.0395
866.52                    5.0365
866.78                    6.0172
867.05                    5.2379
867.31                    5.9511
867.58                    4.9741
867.84                    5.2239
868.11                    4.5027
868.37                    4.4873
868.64                    4.2299
868.91                    4.3242
869.17                    4.3206
869.44                    4.3170
869.70                    4.2207
869.97                    4.2169
870.23                    4.2130
870.50                    4.2053
870.76                    4.2016
871.03                    4.1979
871.29                    4.1918
871.56                    4.1881
871.82                    4.1844
872.09                    4.1806
872.35                    4.1770
872.62                    4.1733
872.89                    4.1697
873.15                    4.1660
873.42                    4.1623
873.68                    4.1587
873.95                    4.1550
874.21                    4.2191
874.48                    4.2156
874.74                    4.2585
875.01                    4.1908
875.27                    4.1873
875.54                    4.2383
875.80                    4.7507
876.07                    4.7755
876.33                    6.3635
876.60                    5.9347
876.87                    5.9034
877.13                    4.2067
877.40                    4.1106
877.66                    4.1073
877.93                    4.1036
878.19                    4.1022
878.46                    4.1292
878.72                    4.1257
878.99                    4.1179
879.25                    4.0835
879.52                    4.0801
879.78                    4.0766
880.05                    4.0730
880.31                    4.0698
880.58                    4.0664
880.85                    4.0630
881.11                    4.0596
881.38                    4.0562
881.64                    4.0528
881.91                    4.0494
882.17                    4.0775
882.44                   16.9791
882.70                   17.0039
882.97                   17.0034
883.23                    4.0501
883.50                    4.0702
883.76                    4.0549
884.03                    4.0518
884.29                    4.0195
884.56                    4.0162
884.83                    4.0571
885.09                    4.0542
885.36                    4.0508
885.62                    4.0031
885.89                    3.9995
886.15                    3.9963
886.42                    4.1033
886.68                    4.1003
886.95                    4.0972
887.21                    3.9835
887.48                    3.9803
887.74                    3.9772
888.01                    3.9739
888.27                    6.5436
888.54                    6.5453
888.81                    6.5470
889.07                    3.9615
889.34                    3.9584
889.60                    3.9553
889.87                    3.9523
890.13                    3.9521
890.40                    3.9490
890.66                    3.9460
890.93                    3.9400
891.19                    3.9370
891.46                    3.9340
891.72                    4.4483
891.99                    4.4464
892.26                    4.4444
892.52                    3.9220
892.79                    3.9190
893.05                    3.9159
893.32                    3.9128
893.58                    3.9097
893.85                    3.9068
894.11                    5.0516
894.38                    5.0511
894.64                    5.0506
894.91                    3.9182
895.17                    3.9154
895.44                    3.9126
895.70                    3.9001
895.97                    3.8973
896.24                    3.8945
896.50                    3.8781
896.77                    3.8753
897.03                    3.8725
897.30                    3.9148
897.56                    3.9189
897.83                    4.0476
898.09                    4.0072
898.36                    3.9983
898.62                    3.8791
898.89                    3.8691
899.15                    3.8660
899.42                    3.8478
899.68                    3.8451
899.95                    3.8906
900.22                    3.9124
900.48                    3.9100
900.75                    3.8585
901.01                    3.8903
901.28                    3.8933
901.54                    3.8910
901.81                    3.8330
902.07                    3.8251
902.34                    3.8227
902.60                    3.9022
902.87                    3.9000
903.13                    3.9182
903.40                    3.8479
903.66                    3.9386
903.93                    3.9161
904.20                    4.0240
904.46                    3.9373
904.73                    4.8905
904.99                    4.7901
905.26                    4.8234
905.52                    3.8585
905.79                    3.8292
906.05                    3.7861
906.32                    3.7838
906.58                    3.7815
906.85                    3.7793
907.11                    3.7770
907.38                    3.7748
907.64                    3.7726
907.91                    3.7704
908.18                    3.8679
908.44                    3.8659
908.71                    3.9173
908.97                    4.3501
909.24                    4.3747
909.50                    4.3210
909.77                    3.8001
910.03                    4.0655
910.30                    4.0648
910.56                    4.0429
910.83                    3.7462
911.09                    3.7688
911.36                    3.7797
911.62                    3.7779
911.89                    3.7510
912.16                    3.7954
912.42                    3.9667
912.69                    3.9657
912.95                    3.9046
913.22                    3.7744
913.48                    3.7726
913.75                    3.7885
914.01                    3.8107
914.28                    3.8140
914.54                    3.8420
914.81                    3.7723
915.07                    3.8417
915.34                    3.7925
915.60                    3.8617
915.87                    7.1859
916.14                    7.3673
916.40                    7.3108
916.67                    3.8716
916.93                    3.7426
917.20                    3.7397
917.46                    3.7595
917.73                    3.8089
917.99                    3.8419
918.26                    3.9439
918.52                    4.0890
918.79                    4.1431
919.05                    4.0253
919.32                    3.8290
919.59                    3.9020
919.85                    3.9719
920.00                    3.1782
920.50                    3.2047
921.00                    3.1979
921.50                    3.1802
922.00                    3.1788
922.50                    3.1980
923.00                    3.1975
923.50                    3.1812
924.00                    3.1657
924.50                    3.1568
925.00                    3.1536
925.50                    3.1648
926.00                    3.1674
926.50                    3.1671
927.00                    3.1744
927.50                    3.1405
928.00                    3.0764
928.50                    3.0525
929.00                    3.0479
929.50                    3.0037
930.00                    2.9916
930.50                    3.9598
931.00                    5.9038
931.50                    6.4418
932.00                    4.9826
932.50                    5.2659
933.00                    4.0984
933.50                    3.0042
934.00                    3.0245
934.50                    2.5054
935.00                    2.4020
935.50                    2.4089
936.00                    2.3060
936.50                    2.4530
937.00                    3.0253
937.50                    5.5259
938.00                    7.2588
938.50                    5.5344
939.00                    4.6363
939.50                    3.9267
940.00                    3.3799
940.50                    3.6590
941.00                    3.1803
941.50                    3.1092
942.00                    3.8049
942.50                    3.7653
943.00                    2.7828
943.50                    3.6485
944.00                    5.1923
944.50                    4.5183
945.00                    3.5035
945.50                    3.3217
946.00                    3.7808
946.50                    3.3223
947.00                    2.9281
947.50                    4.9644
948.00                    6.8836
948.50                    4.3826
949.00                    2.7865
949.50                    2.6255
950.00                    2.9732
950.50                    3.6706
951.00                    3.4888
951.50                    3.9349
952.00                    5.0984
952.50                    4.5452
953.00                    3.2049
953.50                    2.7828
954.00                    2.7463
954.50                    2.6452
955.00                    3.0752
955.50                    3.4891
956.00                    3.0936
956.50                    3.5915
957.00                    4.3700
957.50                    3.7377
958.00                    2.8207
958.50                    2.7241
959.00                    2.6574
959.50                    2.6358
960.00                    2.7602
960.50                    3.0135
961.00                    3.2421
961.50                    3.1784
962.00                    3.3423
962.50                    3.5253
963.00                    3.1837
963.50                    2.8836
964.00                    2.7945
964.50                    2.7812
965.00                    2.8530
965.50                    2.9976
966.00                    3.0519
966.50                    3.2041
967.00                    3.5469
967.50                    3.5600
968.00                    4.0267
968.50                    4.5982
969.00                    4.1227
969.50                    4.3913
970.00                    5.4298
970.50                    4.7927
971.00                    4.0370
971.50                    4.9322
972.00                    6.0626
972.50                    5.5287
973.00                    3.8007
973.50                    3.5290
974.00                    4.1360
974.50                    3.6265
975.00                    3.0285
975.50                    2.9238
976.00                    2.8811
976.50                    2.9031
977.00                    2.9512
977.50                    2.9681
978.00                    2.9422
978.50                    3.9290
979.00                    9.1197
979.50                   13.2008
980.00                    9.7998
980.50                    5.4729
981.00                    4.3360
981.50                    4.0708
982.00                    3.4978
982.50                    3.1232
983.00                    3.2413
983.50                    3.1248
984.00                    2.9954
984.50                    3.8712
985.00                    4.9675
985.50                    4.1910
986.00                    3.1373
986.50                    3.0754
987.00                    6.4484
987.50                    9.8791
988.00                    6.3508
988.50                    3.0239
989.00                    3.6262
989.50                    4.9249
990.00                    4.8782
990.50                    3.5780
991.00                    4.8664
991.50                    8.5226
992.00                    8.2326
992.50                    4.5892
993.00                    2.9553
993.50                    3.0275
994.00                    4.9005
994.50                    9.4185
995.00                   10.5285
995.50                    8.1736
996.00                    9.6293
996.50                    9.5931
997.00                    5.7210
997.50                    4.0486
998.00                    3.5146
998.50                    2.9753
999.00                    2.9384
999.50                    3.1452
1000.00                   3.6520
1000.50                   3.7804
1001.00                   7.6899
1001.50                  12.5117
1002.00                   8.8548
1002.50                   5.5104
1003.00                   5.5179
1003.50                   3.9736
1004.00                   3.4821
1004.50                   4.0171
1005.00                   3.5713
1005.50                   3.3077
1006.00                   4.1907
1006.50                   4.8220
1007.00                   4.3889
1007.50                   3.7990
1008.00                   5.6420
1008.50                   7.9472
1009.00                   5.4632
1009.50                   3.0494
1010.00                   3.8451
1010.50                   4.8499
1011.00                   4.1160
1011.50                   3.0825
1012.00                   5.0448
1012.50                   8.1991
1013.00                   6.9091
1013.50                   3.9568
1014.00                   3.0427
1014.50                   3.1622
1015.00                   4.2968
1015.50                   5.8090
1016.00                   5.6582
1016.50                   4.6212
1017.00                   8.0055
1017.50                  11.8708
1018.00                   8.1506
1018.50                   6.6891
1019.00                   9.8005
1019.50                   9.0201
1020.00                   6.3845
1020.50                   7.2576
1021.00                  11.4460
1021.50                  13.2440
1022.00                   7.5248
1022.50                   4.9332
1023.00                   7.6176
1023.50                   7.1898
1024.00                   4.2116
1024.50                   2.8402
1025.00                   2.8392
1025.50                   2.8372
1026.00                   2.8368
1026.50                   2.8804
1027.00                   3.1996
1027.50                   3.4439
1028.00                   4.5448
1028.50                  19.2679
1029.00                  33.2184
1029.50                  22.5527
1030.00                  12.1404
1030.50                   7.8103
1031.00                   5.4780
1031.50                   5.1329
1032.00                   3.5396
1032.50                   3.3387
1033.00                   3.7199
1033.50                   3.2898
1034.00                   3.0526
1034.50                   5.8950
1035.00                   8.9547
1035.50                   6.2596
1036.00                   3.2572
1036.50                   2.9010
1037.00                  11.5317
1037.50                  21.5000
1038.00                  12.9913
1038.50                   3.5212
1039.00                   3.0138
1039.50                   6.5437
1040.00                   9.8231
1040.50                   6.1032
1041.00                   2.8106
1041.50                  11.1925
1042.00                  21.7121
1042.50                  14.5136
1043.00                   4.5131
1043.50                   2.8723
1044.00                   2.7879
1044.50                   3.4556
1045.00                   6.2087
1045.50                   7.6300
1046.00                   4.7840
1046.50                   7.3052
1047.00                  14.1852
1047.50                  11.5056
1048.00                   4.7890
1048.50                   2.7528
1049.00                   2.7504
1049.50                   2.7573
1050.00                   2.7688
1050.50                   3.7105
1051.00                   5.2459
1051.50                   4.8011
1052.00                   4.7136
1052.50                   7.4275
1053.00                   7.7292
1053.50                   4.4555
1054.00                   2.7327
1054.50                   2.7310
1055.00                   2.7292
1055.50                   2.7274
1056.00                   2.7256
1056.50                   2.7282
1057.00                   3.2840
1057.50                   3.8943
1058.00                   3.5222
1058.50                   4.1010
1059.00                   4.8843
1059.50                   3.6739
1060.00                   2.7200
1060.50                   2.7169
1061.00                   2.7101
1061.50                   2.7056
1062.00                   2.7036
1062.50                   2.7014
1063.00                   2.6994
1063.50                   2.7296
1064.00                   2.9060
1064.50                   3.0288
1065.00                   3.1488
1065.50                   3.3323
1066.00                   3.0185
1066.50                   2.7006
1067.00                   2.6842
1067.50                   2.6809
1068.00                   2.7577
1068.50                   3.2668
1069.00                   3.9039
1069.50                   4.9051
1070.00                   6.0732
1070.50                   5.7871
1071.00                   7.5097
1071.50                   9.5517
1072.00                   7.4692
1072.50                  10.2092
1073.00                  15.2472
1073.50                  10.8699
1074.00                   6.5759
1074.50                   8.5901
1075.00                  14.2962
1075.50                  17.7016
1076.00                   9.2795
1076.50                   2.7012
1077.00                   5.3574
1077.50                   8.1519
1078.00                   5.4267
1078.50                   2.7254
1079.00                   2.6488
1079.50                   2.6534
1080.00                   2.6503
1080.50                   2.6500
1081.00                   2.6374
1081.50                   2.6249
1082.00                   2.6272
1082.50                   5.3620
1083.00                  27.0215
1083.50                  44.7260
1084.00                  29.9711
1084.50                  17.6151
1085.00                   9.9122
1085.50                   5.6569
1086.00                   7.5970
1086.50                   4.8953
1087.00                   2.7728
1087.50                   3.5359
1088.00                   4.0757
1088.50                   3.2530
1089.00                   3.3336
1089.50                   7.6283
1090.00                  10.7561
1090.50                   6.3787
1091.00                   2.7352
1091.50                   2.5954
1092.00                  13.8515
1092.50                  28.3281
1093.00                  19.6153
1093.50                   5.4680
1094.00                   2.6030
1094.50                   6.9207
1095.00                  12.4960
1095.50                   8.9507
1096.00                   3.5146
1096.50                   2.7020
1097.00                  17.3027
1097.50                  33.0216
1098.00                  18.0592
1098.50                   3.1435
1099.00                   2.5256
1099.50                   2.5006
1100.00                   2.8139
