# sky background 0.3-1.0um
# DARK optical sky - 50%ile conditions (day 7)
# AM=1.5
#
#derived from sky spectrum with constant slope to match assumed photometric background
#increasingly poor model at very bright sky (day14);  patched to near-IR background at 920nm
#
#1 March 2001 : Phil Puxley

#nm         phot/s/nm/arcsec^2/m^2
320.00                    0.0000
349.99                    0.0000
350.17                    0.7572
350.43                    0.7571
350.70                    0.7569
350.96                    0.7568
351.23                    0.7566
351.49                    0.7565
351.76                    0.7563
352.02                    0.7561
352.29                    0.7560
352.55                    0.7558
352.82                    0.7557
353.08                    0.7555
353.35                    0.7553
353.62                    0.7552
353.88                    0.7550
354.15                    0.7549
354.41                    0.7547
354.68                    0.7546
354.94                    0.7544
355.21                    0.7542
355.47                    0.7541
355.74                    0.7539
356.00                    0.7538
356.27                    0.7536
356.53                    0.7535
356.80                    0.7533
357.07                    0.7531
357.33                    0.7530
357.60                    0.7528
357.86                    0.7527
358.13                    0.7525
358.39                    0.7523
358.66                    0.7522
358.92                    0.7520
359.19                    0.7519
359.45                    0.7517
359.72                    0.7516
359.98                    0.7514
360.25                    0.7512
360.51                    0.7511
360.78                    0.7509
361.05                    0.7508
361.31                    0.7506
361.58                    0.7504
361.84                    0.7503
362.11                    0.7501
362.37                    0.7500
362.64                    0.7498
362.90                    0.7497
363.17                    0.7495
363.43                    0.7493
363.70                    0.7492
363.96                    0.7490
364.23                    0.7489
364.49                    0.7487
364.76                    0.7486
365.03                    0.7484
365.29                    0.7482
365.56                    0.7481
365.82                    0.7479
366.09                    0.7478
366.35                    0.7476
366.62                    0.7474
366.88                    0.7473
367.15                    0.7471
367.41                    0.7470
367.68                    0.7468
367.94                    0.7467
368.21                    0.7465
368.47                    0.7463
368.74                    0.7462
369.01                    0.7460
369.27                    0.7459
369.54                    0.7457
369.80                    0.7456
370.07                    0.7454
370.33                    0.7452
370.60                    0.7451
370.86                    0.7449
371.13                    0.7448
371.39                    0.7446
371.66                    0.7444
371.92                    0.7443
372.19                    0.7441
372.45                    0.7440
372.72                    0.7438
372.99                    0.7437
373.25                    0.7435
373.52                    0.7433
373.78                    0.7432
374.05                    0.7430
374.31                    0.7429
374.58                    0.7427
374.84                    0.7426
375.11                    0.7424
375.37                    0.7422
375.64                    0.7421
375.90                    0.7419
376.17                    0.7418
376.43                    0.7416
376.70                    0.7414
376.97                    0.7413
377.23                    0.7411
377.50                    0.7410
377.76                    0.7408
378.03                    0.7407
378.29                    0.7405
378.56                    0.7403
378.82                    0.7402
379.09                    0.7400
379.35                    0.7399
379.62                    0.7397
379.88                    0.7396
380.15                    0.7394
380.41                    0.7392
380.68                    0.7391
380.95                    0.7389
381.21                    0.7388
381.48                    0.7386
381.74                    0.7384
382.01                    0.7383
382.27                    0.7381
382.54                    0.7380
382.80                    0.7378
383.07                    0.7377
383.33                    0.7375
383.60                    0.7373
383.86                    0.7372
384.13                    0.7370
384.40                    0.7369
384.66                    0.7367
384.93                    0.7366
385.19                    0.7364
385.46                    0.7363
385.72                    0.7361
385.99                    0.7360
386.25                    0.7358
386.52                    0.7357
386.78                    0.7355
387.05                    0.7354
387.31                    0.7352
387.58                    0.7351
387.84                    0.7349
388.11                    0.7348
388.38                    0.7346
388.64                    0.7345
388.91                    0.7344
389.17                    0.7342
389.44                    0.7341
389.70                    0.7340
389.97                    0.7338
390.23                    0.7337
390.50                    0.7336
390.76                    0.7335
391.03                    0.7334
391.29                    0.7333
391.56                    0.7332
391.82                    0.7330
392.09                    0.7329
392.36                    0.7328
392.62                    0.7327
392.89                    0.7326
393.15                    0.7325
393.42                    0.7324
393.68                    0.7322
393.95                    0.7321
394.21                    0.7320
394.48                    0.7319
394.74                    0.7318
395.01                    0.7317
395.27                    0.7316
395.54                    0.7314
395.80                    0.7313
396.07                    0.7312
396.34                    0.7311
396.60                    0.7310
396.87                    0.7308
397.13                    0.7307
397.40                    0.7306
397.66                    0.7305
397.93                    0.7304
398.19                    0.7303
398.46                    0.7301
398.72                    0.7300
398.99                    0.7299
399.25                    0.7298
399.52                    0.7296
399.78                    0.7295
400.05                    0.7293
400.32                    0.7293
400.58                    0.7291
400.85                    0.7290
401.11                    0.7289
401.38                    0.7288
401.64                    0.7286
401.91                    0.7285
402.17                    0.7284
402.44                    0.7283
402.70                    0.7281
402.97                    0.7280
403.23                    0.7279
403.50                    0.7277
403.76                    0.7276
404.03                    0.7275
404.30                    0.7274
404.56                    0.7273
404.83                    0.7271
405.09                    0.7270
405.36                    0.7269
405.62                    0.7268
405.89                    0.7267
406.15                    0.7265
406.42                    0.7264
406.68                    0.7263
406.95                    0.7262
407.21                    0.7261
407.48                    0.7260
407.74                    0.7259
408.01                    0.7258
408.28                    0.7256
408.54                    0.7255
408.81                    0.7254
409.07                    0.7253
409.34                    0.7252
409.60                    0.7251
409.87                    0.7250
410.13                    0.7249
410.40                    0.7249
410.66                    0.7248
410.93                    0.7247
411.19                    0.7246
411.46                    0.7246
411.73                    0.7245
411.99                    0.7244
412.26                    0.7243
412.52                    0.7242
412.79                    0.7242
413.05                    0.7241
413.32                    0.7240
413.58                    0.7239
413.85                    0.7238
414.11                    0.7238
414.38                    0.7237
414.64                    0.7236
414.91                    0.7235
415.17                    0.7234
415.44                    0.7233
415.71                    0.7233
415.97                    0.7232
416.24                    0.7231
416.50                    0.7230
416.77                    0.7229
417.03                    0.7228
417.30                    0.7227
417.56                    0.7226
417.83                    0.7225
418.09                    0.7224
418.36                    0.7223
418.62                    0.7222
418.89                    0.7221
419.15                    0.7220
419.42                    0.7219
419.69                    0.7218
419.95                    0.7217
420.22                    0.7216
420.48                    0.7215
420.75                    0.7213
421.01                    0.7212
421.28                    0.7211
421.54                    0.7210
421.81                    0.7208
422.07                    0.7207
422.34                    0.7206
422.60                    0.7205
422.87                    0.7203
423.13                    0.7202
423.40                    0.7201
423.67                    0.7200
423.93                    0.7198
424.20                    0.7197
424.46                    0.7196
424.73                    0.7195
424.99                    0.7193
425.26                    0.7192
425.52                    0.7191
425.79                    0.7190
426.05                    0.7189
426.32                    0.7187
426.58                    0.7186
426.85                    0.7185
427.11                    0.7184
427.38                    0.7183
427.65                    0.7182
427.91                    0.7180
428.18                    0.7179
428.44                    0.7178
428.71                    0.7177
428.97                    0.7176
429.24                    0.7175
429.50                    0.7174
429.77                    0.7172
430.03                    0.7171
430.30                    0.7170
430.56                    0.7169
430.83                    0.7168
431.09                    0.7167
431.36                    0.7166
431.63                    0.7165
431.89                    0.7164
432.16                    0.7163
432.42                    0.7162
432.69                    0.7161
432.95                    0.7160
433.22                    0.7159
433.48                    0.7158
433.75                    0.7157
434.01                    0.7156
434.28                    0.7155
434.54                    0.7154
434.81                    0.7154
435.07                    0.7153
435.34                    0.7152
435.61                    0.7151
435.87                    0.7150
436.14                    0.7149
436.40                    0.7148
436.67                    0.7147
436.93                    0.7146
437.20                    0.7145
437.46                    0.7145
437.73                    0.7144
437.99                    0.7143
438.26                    0.7142
438.52                    0.7141
438.79                    0.7141
439.05                    0.7140
439.32                    0.7139
439.59                    0.7138
439.85                    0.7138
440.12                    0.7137
440.38                    0.7137
440.65                    0.7136
440.91                    0.7136
441.18                    0.7135
441.44                    0.7135
441.71                    0.7134
441.97                    0.7134
442.24                    0.7133
442.50                    0.7133
442.77                    0.7132
443.04                    0.7132
443.30                    0.7131
443.57                    0.7131
443.83                    0.7130
444.10                    0.7130
444.36                    0.7129
444.63                    0.7129
444.89                    0.7128
445.16                    0.7127
445.42                    0.7127
445.69                    0.7126
445.95                    0.7126
446.22                    0.7125
446.48                    0.7125
446.75                    0.7124
447.02                    0.7123
447.28                    0.7123
447.55                    0.7122
447.81                    0.7121
448.08                    0.7121
448.34                    0.7120
448.61                    0.7119
448.87                    0.7119
449.14                    0.7118
449.40                    0.7117
449.67                    0.7116
449.93                    0.7116
450.20                    0.7115
450.46                    0.7114
450.73                    0.7113
451.00                    0.7112
451.26                    0.7111
451.53                    0.7110
451.79                    0.7109
452.06                    0.7108
452.32                    0.7107
452.59                    0.7106
452.85                    0.7105
453.12                    0.7104
453.38                    0.7103
453.65                    0.7102
453.91                    0.7101
454.18                    0.7101
454.44                    0.7100
454.71                    0.7099
454.98                    0.7098
455.24                    0.7097
455.51                    0.7096
455.77                    0.7095
456.04                    0.7094
456.30                    0.7093
456.57                    0.7092
456.83                    0.7091
457.10                    0.7091
457.36                    0.7090
457.63                    0.7089
457.89                    0.7088
458.16                    0.7087
458.42                    0.7086
458.69                    0.7085
458.96                    0.7084
459.22                    0.7084
459.49                    0.7083
459.75                    0.7082
460.02                    0.7081
460.28                    0.7080
460.55                    0.7080
460.81                    0.7079
461.08                    0.7078
461.34                    0.7078
461.61                    0.7077
461.87                    0.7076
462.14                    0.7075
462.40                    0.7075
462.67                    0.7074
462.94                    0.7073
463.20                    0.7073
463.47                    0.7072
463.73                    0.7071
464.00                    0.7071
464.26                    0.7070
464.53                    0.7069
464.79                    0.7068
465.06                    0.7068
465.32                    0.7067
465.59                    0.7067
465.85                    0.7066
466.12                    0.7065
466.38                    0.7065
466.65                    0.7064
466.92                    0.7064
467.18                    0.7063
467.45                    0.7063
467.71                    0.7062
467.98                    0.7061
468.24                    0.7061
468.51                    0.7061
468.77                    0.7060
469.04                    0.7060
469.30                    0.7059
469.57                    0.7059
469.83                    0.7059
470.10                    0.7058
470.37                    0.7058
470.63                    0.7058
470.90                    0.7058
471.16                    0.7058
471.43                    0.7058
471.69                    0.7058
471.96                    0.7058
472.22                    0.7057
472.49                    0.7057
472.75                    0.7057
473.02                    0.7057
473.28                    0.7057
473.55                    0.7057
473.81                    0.7057
474.08                    0.7056
474.35                    0.7056
474.61                    0.7056
474.88                    0.7056
475.14                    0.7055
475.41                    0.7055
475.67                    0.7055
475.94                    0.7055
476.20                    0.7054
476.47                    0.7054
476.73                    0.7054
477.00                    0.7053
477.26                    0.7053
477.53                    0.7052
477.79                    0.7052
478.06                    0.7051
478.33                    0.7051
478.59                    0.7050
478.86                    0.7050
479.12                    0.7049
479.39                    0.7049
479.65                    0.7048
479.92                    0.7047
480.18                    0.7047
480.45                    0.7046
480.71                    0.7045
480.98                    0.7044
481.24                    0.7043
481.51                    0.7042
481.77                    0.7041
482.04                    0.7039
482.31                    0.7038
482.57                    0.7037
482.84                    0.7036
483.10                    0.7035
483.37                    0.7034
483.63                    0.7034
483.90                    0.7033
484.16                    0.7032
484.43                    0.7031
484.69                    0.7030
484.96                    0.7029
485.22                    0.7028
485.49                    0.7027
485.75                    0.7026
486.02                    0.7025
486.29                    0.7024
486.55                    0.7023
486.82                    0.7022
487.08                    0.7021
487.35                    0.7020
487.61                    0.7019
487.88                    0.7018
488.14                    0.7018
488.41                    0.7017
488.67                    0.7016
488.94                    0.7015
489.20                    0.7014
489.47                    0.7013
489.73                    0.7012
490.00                    0.7012
490.27                    0.7011
490.53                    0.7010
490.80                    0.7010
491.06                    0.7009
491.33                    0.7008
491.59                    0.7008
491.86                    0.7007
492.12                    0.7006
492.39                    0.7006
492.65                    0.7005
492.92                    0.7004
493.18                    0.7004
493.45                    0.7003
493.71                    0.7002
493.98                    0.7002
494.25                    0.7001
494.51                    0.7001
494.78                    0.7000
495.04                    0.6999
495.31                    0.6999
495.57                    0.6998
495.84                    0.6997
496.10                    0.6997
496.37                    0.6996
496.63                    0.6995
496.90                    0.6995
497.16                    0.6994
497.43                    0.6994
497.70                    0.6993
497.96                    0.6992
498.23                    0.6992
498.49                    0.6991
498.76                    0.6991
499.02                    0.6990
499.29                    0.6989
499.55                    0.6989
499.82                    0.6988
500.08                    0.6988
500.35                    0.6987
500.61                    0.6987
500.88                    0.6986
501.14                    0.6986
501.41                    0.6985
501.68                    0.6985
501.94                    0.6984
502.21                    0.6984
502.47                    0.6983
502.74                    0.6983
503.00                    0.6982
503.27                    0.6982
503.53                    0.6981
503.80                    0.6981
504.06                    0.6980
504.33                    0.6980
504.59                    0.6979
504.86                    0.6979
505.12                    0.6978
505.39                    0.6978
505.66                    0.6978
505.92                    0.6977
506.19                    0.6977
506.45                    0.6976
506.72                    0.6976
506.98                    0.6975
507.25                    0.6975
507.51                    0.6974
507.78                    0.6974
508.04                    0.6973
508.31                    0.6973
508.57                    0.6972
508.84                    0.6972
509.10                    0.6971
509.37                    0.6971
509.64                    0.6970
509.90                    0.6970
510.17                    0.6970
510.43                    0.6970
510.70                    0.6969
510.96                    0.6974
511.23                    0.6944
511.49                    0.6983
511.76                    0.7003
512.02                    0.6997
512.29                    0.6890
512.55                    0.6763
512.82                    0.6766
513.08                    0.6887
513.35                    0.6959
513.62                    0.6922
513.88                    0.6847
514.15                    0.6867
514.41                    0.6878
514.68                    0.6901
514.94                    0.6860
515.21                    0.6839
515.47                    0.6783
515.74                    0.6756
516.00                    0.6773
516.27                    0.6703
516.53                    0.6644
516.80                    0.6601
517.06                    0.6741
517.33                    0.6802
517.60                    0.6894
517.86                    0.6769
518.13                    0.6826
518.39                    0.6837
518.66                    0.7005
518.92                    0.6948
519.19                    0.7060
519.45                    0.8134
519.72                    0.9414
519.98                    0.9784
520.25                    0.8795
520.51                    0.7554
520.78                    0.7067
521.04                    0.6899
521.31                    0.6875
521.58                    0.6895
521.84                    0.6963
522.11                    0.7086
522.37                    0.6954
522.64                    0.6827
522.90                    0.6736
523.17                    0.6808
523.43                    0.6870
523.70                    0.6922
523.96                    0.6941
524.23                    0.6912
524.49                    0.6857
524.76                    0.6806
525.03                    0.6889
525.29                    0.6931
525.56                    0.6982
525.82                    0.6851
526.09                    0.6697
526.35                    0.6600
526.62                    0.6603
526.88                    0.6705
527.15                    0.6878
527.41                    0.7022
527.68                    0.7062
527.94                    0.7113
528.21                    0.6984
528.47                    0.6852
528.74                    0.6697
529.01                    0.6759
529.27                    0.6850
529.54                    0.6927
529.80                    0.6945
530.07                    0.6950
530.33                    0.6901
530.60                    0.6893
530.86                    0.7055
531.13                    0.7081
531.39                    0.7068
531.66                    0.6885
531.92                    0.6849
532.19                    0.6819
532.45                    0.6906
532.72                    0.7070
532.99                    0.7277
533.25                    0.7189
533.52                    0.7011
533.78                    0.6822
534.05                    0.6827
534.31                    0.6884
534.58                    0.6917
534.84                    0.6878
535.11                    0.6809
535.37                    0.6799
535.64                    0.6874
535.90                    0.6927
536.17                    0.6913
536.43                    0.6860
536.70                    0.6841
536.97                    0.6821
537.23                    0.6903
537.50                    0.6870
537.76                    0.6812
538.03                    0.6670
538.29                    0.6646
538.56                    0.6676
538.82                    0.6801
539.09                    0.6770
539.35                    0.6760
539.62                    0.6692
539.88                    0.6728
540.15                    0.6755
540.41                    0.6739
540.68                    0.6827
540.95                    0.6775
541.21                    0.6863
541.48                    0.6756
541.74                    0.6825
542.01                    0.6699
542.27                    0.6676
542.54                    0.6658
542.80                    0.6713
543.07                    0.6823
543.33                    0.6911
543.60                    0.6908
543.86                    0.6922
544.13                    0.6764
544.39                    0.6817
544.66                    0.6772
544.93                    0.6900
545.19                    0.6889
545.46                    0.6872
545.72                    0.6848
545.99                    0.6890
546.25                    0.6950
546.52                    0.6982
546.78                    0.6918
547.05                    0.6761
547.31                    0.6626
547.58                    0.6636
547.84                    0.6724
548.11                    0.6726
548.37                    0.6786
548.64                    0.6843
548.91                    0.7022
549.17                    0.6985
549.44                    0.7059
549.70                    0.7022
549.97                    0.7057
550.23                    0.7000
550.50                    0.7008
550.76                    0.7005
551.03                    0.6983
551.29                    0.6947
551.56                    0.6933
551.82                    0.6919
552.09                    0.6852
552.36                    0.6742
552.62                    0.6700
552.89                    0.6740
553.15                    0.6935
553.42                    0.6976
553.68                    0.7073
553.95                    0.7116
554.21                    0.7327
554.48                    0.7373
554.74                    0.7312
555.01                    0.7190
555.27                    0.7121
555.54                    0.7058
555.80                    0.7100
556.07                    0.7233
556.34                    0.7345
556.60                    0.7354
556.87                    0.7479
557.13                    2.7110
557.40                    5.4484
557.66                    7.3455
557.93                    5.8403
558.19                    3.1014
558.46                    1.1806
558.72                    0.7278
558.99                    0.7218
559.25                    0.7171
559.52                    0.7061
559.78                    0.7062
560.05                    0.7232
560.32                    0.7334
560.58                    0.7389
560.85                    0.7156
561.11                    0.6896
561.38                    0.6896
561.64                    0.7096
561.91                    0.7426
562.17                    0.7540
562.44                    0.7503
562.70                    0.7248
562.97                    0.7019
563.23                    0.6863
563.50                    0.6930
563.76                    0.7015
564.03                    0.7065
564.30                    0.7157
564.56                    0.7274
564.83                    0.7255
565.09                    0.7086
565.36                    0.6888
565.62                    0.6883
565.89                    0.6952
566.15                    0.7053
566.42                    0.7183
566.68                    0.7277
566.95                    0.7221
567.21                    0.7154
567.48                    0.7106
567.74                    0.7190
568.01                    0.7082
568.28                    0.7024
568.54                    0.6872
568.81                    0.6986
569.07                    0.7132
569.34                    0.7291
569.60                    0.7411
569.87                    0.7296
570.13                    0.7286
570.40                    0.7111
570.66                    0.7150
570.93                    0.7044
571.19                    0.7067
571.46                    0.7103
571.72                    0.7275
571.99                    0.7362
572.26                    0.7395
572.52                    0.7263
572.79                    0.7245
573.05                    0.7199
573.32                    0.7214
573.58                    0.7172
573.85                    0.7117
574.11                    0.7184
574.38                    0.7217
574.64                    0.7248
574.91                    0.7114
575.17                    0.7063
575.44                    0.7007
575.70                    0.7115
575.97                    0.7027
576.24                    0.7044
576.50                    0.7041
576.77                    0.7154
577.03                    0.7173
577.30                    0.7131
577.56                    0.7085
577.83                    0.7086
578.09                    0.7056
578.36                    0.7059
578.62                    0.6964
578.89                    0.6950
579.15                    0.6970
579.42                    0.6993
579.68                    0.7069
579.95                    0.7100
580.22                    0.7250
580.48                    0.7260
580.75                    0.7189
581.01                    0.7074
581.28                    0.7084
581.54                    0.7151
581.81                    0.7325
582.07                    0.7437
582.34                    0.7472
582.60                    0.7326
582.87                    0.7314
583.13                    0.7306
583.40                    0.7306
583.67                    0.7291
583.93                    0.7438
584.20                    0.8298
584.46                    0.8216
584.73                    0.8106
584.99                    0.7267
585.26                    0.7342
585.52                    0.7240
585.79                    0.7313
586.05                    0.7674
586.32                    0.8487
586.58                    0.8930
586.85                    0.8846
587.11                    0.8274
587.38                    0.8064
587.65                    0.7899
587.91                    0.7887
588.18                    0.8017
588.44                    1.2793
588.71                    1.8026
588.97                    2.2240
589.24                    2.0418
589.50                    1.6966
589.77                    1.2882
590.03                    1.0063
590.30                    0.8454
590.56                    0.8256
590.83                    0.8370
591.09                    0.8701
591.36                    0.8928
591.63                    0.8859
591.89                    0.8592
592.16                    0.8355
592.42                    0.8258
592.69                    0.8418
592.95                    0.8829
593.22                    0.9246
593.48                    0.8840
593.75                    0.8166
594.01                    0.7690
594.28                    0.7885
594.54                    0.8047
594.81                    0.8405
595.07                    0.8706
595.34                    0.8730
595.61                    0.8325
595.87                    0.7782
596.14                    0.7599
596.40                    0.7597
596.67                    0.7853
596.93                    0.8104
597.20                    0.8348
597.46                    0.8543
597.73                    0.8471
597.99                    0.8178
598.26                    0.7771
598.52                    0.7672
598.79                    0.7804
599.05                    0.7765
599.32                    0.7673
599.59                    0.7626
599.85                    0.7698
600.12                    0.7860
600.38                    0.7775
600.65                    0.7692
600.91                    0.7465
601.18                    0.7355
601.44                    0.7241
601.71                    0.7179
601.97                    0.7116
602.24                    0.7095
602.50                    0.7195
602.77                    0.7312
603.03                    0.7358
603.30                    0.7300
603.57                    0.7224
603.83                    0.7187
604.10                    0.7178
604.36                    0.7175
604.63                    0.7114
604.89                    0.7002
605.16                    0.6882
605.42                    0.6808
605.69                    0.6819
605.95                    0.6883
606.22                    0.6991
606.48                    0.7038
606.75                    0.6954
607.01                    0.6930
607.28                    0.6857
607.55                    0.6946
607.81                    0.6848
608.08                    0.6879
608.34                    0.6817
608.61                    0.6826
608.87                    0.6832
609.14                    0.6833
609.40                    0.6930
609.67                    0.6957
609.93                    0.6975
610.20                    0.6931
610.46                    0.6959
610.73                    0.6942
611.00                    0.6920
611.26                    0.6792
611.53                    0.6781
611.79                    0.6666
612.06                    0.6635
612.32                    0.6667
612.59                    0.6715
612.85                    0.6735
613.12                    0.6635
613.38                    0.6904
613.65                    0.7166
613.91                    0.7424
614.18                    0.7278
614.44                    0.7184
614.71                    0.6955
614.98                    0.6906
615.24                    0.7135
615.51                    0.7547
615.77                    0.7585
616.04                    0.7181
616.30                    0.6937
616.57                    0.7152
616.83                    0.7473
617.10                    1.0493
617.36                    1.0390
617.63                    1.0173
617.89                    0.6975
618.16                    0.6774
618.42                    0.6643
618.69                    0.6613
618.96                    0.6588
619.22                    0.6658
619.49                    0.6672
619.75                    0.6934
620.02                    0.7206
620.28                    0.7332
620.55                    0.7111
620.81                    0.6897
621.08                    0.6885
621.34                    0.6975
621.61                    0.7222
621.87                    0.7500
622.14                    0.7494
622.40                    0.7158
622.67                    0.6929
622.94                    0.7515
623.20                    0.9096
623.47                    1.0376
623.73                    1.0669
624.00                    0.9653
624.26                    0.8631
624.53                    0.7691
624.79                    0.7224
625.06                    0.7316
625.32                    0.8305
625.59                    0.9443
625.85                    0.9783
626.12                    0.9245
626.38                    0.8522
626.65                    0.8089
626.92                    0.7781
627.18                    0.7537
627.45                    0.7492
627.71                    0.7553
627.98                    0.7684
628.24                    0.8152
628.51                    0.8965
628.77                    0.9275
629.04                    0.9217
629.30                    2.0466
629.57                    7.6561
629.83                   13.0456
630.10                   15.8420
630.36                   10.2818
630.63                    4.9255
630.90                    0.9059
631.16                    0.7923
631.43                    0.7118
631.69                    0.7508
631.96                    0.8121
632.22                    0.8218
632.49                    0.8794
632.75                    0.9115
633.02                    0.9634
633.28                    0.8645
633.55                    0.7574
633.81                    0.6787
634.08                    0.6736
634.34                    0.7123
634.61                    0.7349
634.88                    0.7631
635.14                    0.8016
635.41                    0.8717
635.67                    1.4350
635.94                    3.0371
636.20                    4.7278
636.47                    5.2853
636.73                    3.6226
637.00                    1.8305
637.26                    0.6910
637.53                    0.7016
637.79                    0.7200
638.06                    0.7342
638.33                    0.7493
638.59                    0.7510
638.86                    0.7289
639.12                    0.6894
639.39                    0.6648
639.65                    0.6539
639.92                    0.6614
640.18                    0.6585
640.45                    0.6684
640.71                    0.6617
640.98                    0.6654
641.24                    0.6623
641.51                    0.6731
641.77                    0.6888
642.04                    0.7006
642.31                    0.6928
642.57                    0.6729
642.84                    0.6599
643.10                    0.6562
643.37                    0.6482
643.63                    0.6348
643.90                    0.6296
644.16                    0.6338
644.43                    0.6448
644.69                    0.6555
644.96                    0.6724
645.22                    0.7010
645.49                    0.7108
645.75                    0.7177
646.02                    0.7769
646.29                    0.8663
646.55                    0.9463
646.82                    0.9353
647.08                    0.8595
647.35                    0.7855
647.61                    0.7188
647.88                    0.7064
648.14                    0.6882
648.41                    0.6865
648.67                    0.6690
648.94                    0.6591
649.20                    0.6598
649.47                    0.6654
649.73                    0.6739
650.00                    0.6779
650.27                    0.7048
650.53                    0.6982
650.80                    0.6869
651.06                    0.6580
651.33                    0.6644
651.59                    0.6600
651.86                    0.6553
652.12                    0.6590
652.39                    0.6673
652.65                    0.6698
652.92                    0.6698
653.18                    0.6685
653.45                    0.6753
653.71                    0.6795
653.98                    0.6885
654.25                    0.6908
654.51                    0.6795
654.78                    0.6838
655.04                    0.7404
655.31                    0.7499
655.57                    0.7500
655.84                    0.6930
656.10                    0.6843
656.37                    0.6671
656.63                    0.7341
656.90                    0.7441
657.16                    0.7513
657.43                    0.7138
657.69                    0.7038
657.96                    0.7037
658.23                    0.6704
658.49                    0.6767
658.76                    0.6713
659.02                    0.6687
659.29                    0.6683
659.55                    0.6688
659.82                    0.6693
660.08                    0.6709
660.35                    0.6714
660.61                    0.6737
660.88                    0.6677
661.14                    0.6810
661.41                    0.6797
661.67                    0.6817
661.94                    0.6694
662.21                    0.6716
662.47                    0.6907
662.74                    0.7107
663.00                    0.7098
663.27                    0.6940
663.53                    0.6841
663.80                    0.6843
664.06                    0.6808
664.33                    0.6723
664.59                    0.6743
664.86                    0.6751
665.12                    0.6783
665.39                    0.6819
665.66                    0.6850
665.92                    0.6830
666.19                    0.6788
666.45                    0.6833
666.72                    0.6835
666.98                    0.6840
667.25                    0.6777
667.51                    0.6781
667.78                    0.6805
668.04                    0.6810
668.31                    0.6815
668.57                    0.6801
668.84                    0.6805
669.10                    0.6810
669.37                    0.6817
669.64                    0.6919
669.90                    0.6950
670.17                    0.6953
670.43                    0.7007
670.70                    0.7186
670.96                    0.7470
671.23                    0.7426
671.49                    0.7381
671.76                    0.7260
672.02                    0.7196
672.29                    0.7163
672.55                    0.7054
672.82                    0.7029
673.08                    0.6920
673.35                    0.7195
673.62                    0.7200
673.88                    0.7205
674.15                    0.6913
674.41                    0.6931
674.68                    0.6946
674.94                    0.6951
675.21                    0.6945
675.47                    0.6969
675.74                    0.6962
676.00                    0.6998
676.27                    0.6993
676.53                    0.6995
676.80                    0.7087
677.06                    0.7251
677.33                    0.7257
677.60                    0.7158
677.86                    0.6984
678.13                    0.6987
678.39                    0.6973
678.66                    0.6979
678.92                    0.7190
679.19                    0.7197
679.45                    0.7240
679.72                    0.7231
679.98                    0.7234
680.25                    0.7198
680.51                    0.7010
680.78                    0.7014
681.04                    0.7019
681.31                    0.7024
681.58                    0.7029
681.84                    0.7033
682.11                    0.7038
682.37                    0.7043
682.64                    0.7240
682.90                    0.7296
683.17                    1.0702
683.43                    1.0517
683.70                    1.0473
683.96                    0.7219
684.23                    0.7223
684.49                    0.7228
684.76                    0.7085
685.02                    0.7090
685.29                    0.7095
685.56                    0.7099
685.82                    0.7104
686.09                    1.2130
686.35                    1.2139
686.62                    1.2149
686.88                    0.7229
687.15                    0.7233
687.41                    0.7238
687.68                    0.7136
687.94                    0.7320
688.21                    0.7325
688.47                    0.7340
688.74                    0.7164
689.00                    0.7200
689.27                    0.7194
689.54                    0.7228
689.80                    0.9790
690.07                    0.9800
690.33                    0.9832
690.60                    0.7238
690.86                    0.7242
691.13                    0.7194
691.39                    0.7199
691.66                    0.7326
691.92                    0.7331
692.19                    0.7335
692.45                    0.7216
692.72                    0.7221
692.99                    0.7225
693.25                    0.7314
693.52                    0.7409
693.78                    0.7547
694.05                    0.7483
694.31                    0.7410
694.58                    0.7281
694.84                    0.7410
695.11                    0.7464
695.37                    0.7662
695.64                    0.7816
695.90                    0.7918
696.17                    0.7778
696.43                    0.7521
696.70                    0.7995
696.97                    0.8051
697.23                    0.8135
697.50                    0.7549
697.76                    0.7461
698.03                    0.7356
698.29                    0.7317
698.56                    0.7391
698.82                    0.7418
699.09                    0.7423
699.35                    0.7428
699.62                    0.7451
699.88                    0.7581
700.15                    0.7540
700.41                    0.7502
700.68                    0.7379
700.95                    0.7348
701.21                    0.7352
701.48                    0.7355
701.74                    0.7359
702.01                    0.7362
702.27                    0.7366
702.54                    0.7373
702.80                    0.7410
703.07                    0.7429
703.33                    0.7428
703.60                    0.7442
703.86                    0.7854
704.13                    0.8008
704.39                    0.7972
704.66                    0.7565
704.93                    0.7539
705.19                    0.7539
705.46                    0.7529
705.72                    0.7539
705.99                    0.7669
706.25                    0.7672
706.52                    0.7581
706.78                    0.7703
707.05                    0.7908
707.31                    0.7880
707.58                    0.7737
707.84                    0.7627
708.11                    0.7631
708.37                    0.7538
708.64                    0.7456
708.91                    0.7463
709.17                    0.7466
709.44                    0.7534
709.70                    0.7551
709.97                    0.7554
710.23                    0.7490
710.50                    0.7767
710.76                    0.7875
711.03                    0.7881
711.29                    0.7596
711.56                    0.7495
711.82                    0.7497
712.09                    0.7501
712.35                    0.7504
712.62                    0.7508
712.89                    0.7569
713.15                    0.7573
713.42                    0.7577
713.68                    0.7626
713.95                    0.7630
714.21                    0.7634
714.48                    0.7535
714.74                    0.7539
715.01                    0.7543
715.27                    0.7578
715.54                    0.7671
715.80                    0.7675
716.07                    0.7648
716.33                    0.7608
716.60                    0.7612
716.87                    0.7616
717.13                    0.7575
717.40                    0.7579
717.66                    0.7618
717.93                    0.7622
718.19                    0.7626
718.46                    0.7595
718.72                    0.7599
718.99                    0.7603
719.25                    0.7607
719.52                    0.7612
719.78                    0.7616
720.05                    0.7620
720.32                    0.7625
720.58                    0.7629
720.85                    0.7634
721.11                    0.7639
721.38                    0.7643
721.64                    0.7648
721.91                    0.7653
722.17                    0.7679
722.44                    0.7684
722.70                    0.7711
722.97                    0.7694
723.23                    0.7699
723.50                    0.7681
723.76                    0.8832
724.03                    0.8840
724.30                    0.9812
724.56                    0.8790
724.83                    0.8825
725.09                    0.7860
725.36                    0.7784
725.62                    0.7760
725.89                    0.7765
726.15                    0.7728
726.42                    0.7733
726.68                    0.7819
726.95                    0.7824
727.21                    0.8768
727.48                    0.8693
727.74                    0.8699
728.01                    0.7761
728.28                    0.7830
728.54                    0.7835
728.81                    0.7863
729.07                    0.7823
729.34                    0.9628
729.60                    0.9613
729.87                    0.9602
730.13                    0.8076
730.40                    0.8087
730.66                    0.8092
730.93                    0.8089
731.19                    0.8089
731.46                    0.8371
731.72                    0.8440
731.99                    0.8446
732.26                    0.8173
732.52                    0.7843
732.79                    0.7884
733.05                    0.7888
733.32                    0.7893
733.58                    0.7861
733.85                    2.5285
734.11                    2.5453
734.38                    2.5486
734.64                    0.8070
734.91                    0.7948
735.17                    0.7953
735.44                    0.8052
735.70                    0.8047
735.97                    0.8109
736.24                    0.7966
736.50                    0.8031
736.77                    0.7979
737.03                    0.8181
737.30                    0.8152
737.56                    0.8341
737.83                    0.8190
738.09                    0.8395
738.36                    0.8218
738.62                    0.8186
738.89                    0.7969
739.15                    0.7971
739.42                    0.7970
739.68                    0.8017
739.95                    0.8099
740.22                    0.8106
740.48                    0.8072
740.75                    0.8095
741.01                    0.8468
741.28                    0.8490
741.54                    0.8709
741.81                    0.8342
742.07                    0.8412
742.34                    0.8103
742.60                    0.8343
742.87                    0.8257
743.13                    0.8341
743.40                    0.8110
743.66                    0.8278
743.93                    0.8250
744.20                    0.8281
744.46                    0.8122
744.73                    0.8126
744.99                    0.8241
745.26                    0.8246
745.52                    0.8217
745.79                    0.8224
746.05                    0.8249
746.32                    0.8370
746.58                    0.8352
746.85                    1.0237
747.11                    1.0540
747.38                    1.0437
747.64                    0.9538
747.91                    0.9257
748.18                    0.9472
748.44                    0.8501
748.71                    0.8432
748.97                    0.8219
749.24                    0.8233
749.50                    0.8314
749.77                    0.8504
750.03                    0.8640
750.30                    0.8511
750.56                    0.8504
750.83                    0.9209
751.09                    0.9239
751.36                    0.9605
751.63                    0.8803
751.89                    0.8811
752.16                    1.2090
752.42                    1.2093
752.69                    1.2172
752.95                    0.8636
753.22                    0.8807
753.48                    0.8793
753.75                    0.9071
754.01                    0.9032
754.28                    0.8976
754.54                    0.8433
754.81                    0.8518
755.07                    0.8903
755.34                    0.8992
755.61                    0.8759
755.87                    0.8422
756.14                    0.8529
756.40                    0.8660
756.67                    0.8622
756.93                    1.4949
757.20                    1.5685
757.46                    1.5679
757.73                    0.9202
757.99                    0.8406
758.26                    0.8491
758.52                    0.8457
758.79                    0.8397
759.05                    0.8370
759.32                    0.8376
759.59                    1.0341
759.85                    1.0302
760.12                    1.0308
760.38                    0.8354
760.65                    0.8361
760.91                    0.8367
761.18                    0.8456
761.44                    0.8462
761.71                    0.8584
761.97                    0.8698
762.24                    0.8704
762.50                    0.8613
762.77                    0.8431
763.03                    0.8511
763.30                    0.8501
763.57                    0.8523
763.83                    0.8455
764.10                    0.8462
764.36                    0.8741
764.63                    0.8748
764.89                    0.8756
765.16                    0.8474
765.42                    0.8481
765.69                    0.8488
765.95                    1.0506
766.22                    1.0515
766.48                    1.0523
766.75                    0.8517
767.01                    0.8564
767.28                    0.8571
767.55                    0.8578
767.81                    0.8573
768.08                    0.8580
768.34                    0.8597
768.61                    0.8577
768.87                    0.8827
769.14                    0.8825
769.40                    0.8832
769.67                    0.8955
769.93                    0.9015
770.20                    0.9022
770.46                    0.8974
770.73                    0.9128
770.99                    2.6942
771.26                    3.0333
771.53                    3.3946
771.79                    1.6505
772.06                    1.3011
772.32                    1.2876
772.59                    1.2525
772.85                    1.2420
773.12                    0.9017
773.38                    0.9025
773.65                    0.8960
773.91                    0.8758
774.18                    0.8765
774.44                    0.8809
774.71                    0.8957
774.97                    0.9160
775.24                    0.9132
775.51                    0.8959
775.77                    0.9051
776.04                    0.9059
776.30                    0.9078
776.57                    0.8807
776.83                    0.8815
777.10                    0.9454
777.36                    0.9462
777.63                    0.9471
777.89                    0.8836
778.16                    0.8890
778.42                    0.9197
778.69                    0.9315
778.96                    0.9688
779.22                    0.9432
779.49                    0.9330
779.75                    0.8928
780.02                    0.9070
780.28                    0.9077
780.55                    1.2768
780.81                    1.2607
781.08                    1.2613
781.34                    0.9152
781.61                    0.9650
781.87                    4.8231
782.14                    4.8008
782.40                    4.7506
782.67                    0.9054
782.94                    0.9062
783.20                    0.9071
783.47                    0.9020
783.73                    0.9029
784.00                    0.9037
784.26                    0.9038
784.53                    0.9047
784.79                    0.9113
785.06                    3.7548
785.32                    3.7540
785.59                    3.7476
785.85                    0.9092
786.12                    0.9100
786.38                    0.9109
786.65                    0.9118
786.92                    0.9127
787.18                    0.9136
787.45                    0.9145
787.71                    0.9155
787.98                    0.9164
788.24                    0.9173
788.51                    0.9270
788.77                    1.0165
789.04                    1.0174
789.30                    1.0098
789.57                    0.9221
789.83                    0.9231
790.10                    0.9240
790.36                    0.9250
790.63                    0.9260
790.90                    0.9288
791.16                    0.9298
791.43                    0.9308
791.69                    0.9624
791.96                    0.9634
792.22                    0.9643
792.49                    0.9329
792.75                    0.9590
793.02                    0.9600
793.28                    0.9610
793.55                    0.9370
793.81                    0.9380
794.08                    0.9396
794.34                    0.9777
794.61                    1.0043
794.88                    1.0047
795.14                    0.9738
795.41                    0.9493
795.67                    0.9504
795.94                    0.9463
796.20                    3.6044
796.47                    3.6062
796.73                    3.6080
797.00                    0.9506
797.26                    0.9563
797.53                    0.9574
797.79                    0.9585
798.06                    0.9550
798.32                    0.9561
798.59                    0.9572
798.86                    0.9674
799.12                    0.9941
799.39                    0.9952
799.65                    0.9874
799.92                    0.9642
800.18                    0.9701
800.45                    0.9713
800.71                    0.9711
800.98                    0.9676
801.24                    1.0375
801.51                    1.0388
801.77                    1.1524
802.04                    1.0937
802.30                    2.6221
802.57                    2.6143
802.84                    2.6099
803.10                    1.0829
803.37                    0.9844
803.63                    0.9934
803.90                    0.9899
804.16                    0.9899
804.43                    0.9833
804.69                    1.0235
804.96                    1.2458
805.22                    1.2603
805.49                    1.2431
805.75                    1.0570
806.02                    1.0455
806.29                    1.0385
806.55                    1.0346
806.82                    1.0677
807.08                    1.0570
807.35                    1.0537
807.61                    1.0545
807.88                    1.0966
808.14                    1.1658
808.41                    1.1373
808.67                    1.0979
808.94                    1.0066
809.20                    1.0095
809.47                    1.0257
809.73                    1.0273
810.00                    1.3576
810.27                    1.3440
810.53                    1.3827
810.80                    1.0569
811.06                    1.0738
811.33                    1.0442
811.59                    1.0540
811.86                    1.0623
812.12                    1.0596
812.39                    1.0950
812.65                    1.0813
812.92                    1.1062
813.18                    1.0658
813.45                    1.0682
813.71                    1.0713
813.98                    1.0820
814.25                    1.0842
814.51                    1.1187
814.78                    1.3118
815.04                    1.3097
815.31                    1.2777
815.57                    1.1024
815.84                    1.0980
816.10                    1.0752
816.37                    1.1519
816.63                    1.2011
816.90                    1.2345
817.16                    1.1345
817.43                    1.0901
817.69                    1.0740
817.96                    1.0781
818.23                    1.0804
818.49                    1.1829
818.76                    1.2106
819.02                    1.2419
819.29                    1.2235
819.55                    1.1910
819.82                    1.1596
820.08                    1.0626
820.35                    1.0639
820.61                    1.0844
820.88                    1.1066
821.14                    1.1177
821.41                    1.1026
821.67                    1.0901
821.94                    1.1088
822.21                    1.1134
822.47                    1.1197
822.74                    1.1205
823.00                    1.1174
823.27                    1.1283
823.53                    1.1045
823.80                    1.1043
824.06                    1.0828
824.33                    1.1308
824.59                    1.1347
824.86                    1.1610
825.12                    1.1141
825.39                    1.1391
825.65                    1.1622
825.92                    1.2172
826.19                    1.2712
826.45                    1.2412
826.72                    1.1892
826.98                    1.1532
827.25                    1.1394
827.51                    1.3499
827.78                    1.3100
828.04                    1.3116
828.31                    1.1133
828.57                    4.0359
828.84                    4.1028
829.10                    4.1142
829.37                    1.8196
829.63                    3.2917
829.90                    3.3122
830.17                    2.6800
830.43                    1.1839
830.70                    1.1545
830.96                    1.1561
831.23                    1.1421
831.49                    1.2015
831.76                    1.2032
832.02                    1.1827
832.29                    1.1261
832.55                    1.1275
832.82                    1.1291
833.08                    1.1307
833.35                    1.1323
833.62                    1.1651
833.88                    1.2243
834.15                    2.0926
834.41                    2.0784
834.68                    2.1153
834.94                    1.2488
835.21                    1.2499
835.47                    1.1593
835.74                    1.1700
836.00                    1.1576
836.27                    1.2232
836.53                    1.2159
836.80                    1.2178
837.06                    1.1791
837.33                    1.1808
837.60                    1.1836
837.86                    1.1616
838.13                    1.2523
838.39                    1.2566
838.66                    1.2585
838.92                    1.1710
839.19                    1.1718
839.45                    1.1969
839.72                    1.2461
839.98                    1.2457
840.25                    1.2242
840.51                    1.3304
840.78                    1.3931
841.04                    1.3971
841.31                    1.3159
841.58                    1.2688
841.84                    1.2989
842.11                    1.2963
842.37                    1.3502
842.64                    1.4296
842.90                    1.3788
843.17                    1.4033
843.43                    1.3222
843.70                    1.3202
843.96                    1.2392
844.23                    1.2170
844.49                    1.2126
844.76                    1.2114
845.02                    1.2412
845.29                    1.2423
845.56                    1.2445
845.82                    1.2187
846.09                    1.2208
846.35                    1.2228
846.62                    1.2603
846.88                    1.2634
847.15                    1.2655
847.41                    1.2320
847.68                    1.2332
847.94                    1.2353
848.21                    1.2374
848.47                    1.2395
848.74                    1.2417
849.00                    1.2523
849.27                    1.2544
849.54                    1.3165
849.80                    1.3104
850.07                    1.3304
850.33                    1.2996
850.60                    1.3046
850.86                    1.2893
851.13                    1.3125
851.39                    1.3140
851.66                    1.3194
851.92                    1.3072
852.19                    1.3476
852.45                    1.3469
852.72                    1.3151
852.98                    1.2771
853.25                    1.2793
853.52                    1.2816
853.78                    1.2839
854.05                    1.2862
854.31                    1.2885
854.58                    1.7222
854.84                    1.7249
855.11                    1.7277
855.37                    1.2975
855.64                    1.2998
855.90                    1.3022
856.17                    1.3046
856.43                    1.3069
856.70                    1.3093
856.96                    1.3117
857.23                    1.3140
857.50                    1.3164
857.76                    1.3188
858.03                    1.3213
858.29                    1.3237
858.56                    1.5112
858.82                    1.5139
859.09                    1.5166
859.35                    1.3732
859.62                    1.3758
859.88                    1.3782
860.15                    1.3408
860.41                    1.3433
860.68                    1.3458
860.95                    1.3483
861.21                    1.3508
861.48                    1.3533
861.74                    1.3661
862.01                    1.7775
862.27                    1.7808
862.54                    2.6396
862.80                    2.2332
863.07                    2.4758
863.33                    1.6098
863.60                    1.6128
863.86                    1.3760
864.13                    1.3785
864.39                    1.6936
864.66                    1.7852
864.93                    1.7881
865.19                    1.8051
865.46                    1.7192
865.72                    1.7221
865.99                    1.3968
866.25                    2.1743
866.52                    2.1778
866.78                    3.1651
867.05                    2.3923
867.31                    3.1122
867.58                    2.1417
867.84                    2.3981
868.11                    1.6834
868.37                    1.6746
868.64                    1.4237
868.91                    1.5245
869.17                    1.5275
869.44                    1.5304
869.70                    1.4407
869.97                    1.4434
870.23                    1.4460
870.50                    1.4449
870.76                    1.4478
871.03                    1.4506
871.29                    1.4511
871.56                    1.4539
871.82                    1.4567
872.09                    1.4595
872.35                    1.4625
872.62                    1.4653
872.89                    1.4682
873.15                    1.4711
873.42                    1.4740
873.68                    1.4769
873.95                    1.4798
874.21                    1.5504
874.48                    1.5535
874.74                    1.6029
875.01                    1.5417
875.27                    1.5447
875.54                    1.6023
875.80                    2.1213
876.07                    2.1526
876.33                    3.7472
876.60                    3.3249
876.87                    3.3002
877.13                    1.6100
877.40                    1.5205
877.66                    1.5237
877.93                    1.5266
878.19                    1.5317
878.46                    1.5652
878.72                    1.5683
878.99                    1.5670
879.25                    1.5392
879.52                    1.5423
879.78                    1.5454
880.05                    1.5484
880.31                    1.5517
880.58                    1.5548
880.85                    1.5580
881.11                    1.5611
881.38                    1.5643
881.64                    1.5674
881.91                    1.5706
882.17                    1.6052
882.44                   14.5133
882.70                   14.5447
882.97                   14.5507
883.23                    1.6040
883.50                    1.6307
883.76                    1.6219
884.03                    1.6253
884.29                    1.5996
884.56                    1.6028
884.83                    1.6503
885.09                    1.6539
885.36                    1.6571
885.62                    1.6160
885.89                    1.6189
886.15                    1.6222
886.42                    1.7358
886.68                    1.7393
886.95                    1.7428
887.21                    1.6356
887.48                    1.6390
887.74                    1.6424
888.01                    1.6457
888.27                    4.2219
888.54                    4.2302
888.81                    4.2384
889.07                    1.6595
889.34                    1.6629
889.60                    1.6664
889.87                    1.6699
890.13                    1.6762
890.40                    1.6797
890.66                    1.6832
890.93                    1.6838
891.19                    1.6873
891.46                    1.6909
891.72                    2.2118
891.99                    2.2163
892.26                    2.2209
892.52                    1.7051
892.79                    1.7087
893.05                    1.7121
893.32                    1.7155
893.58                    1.7190
893.85                    1.7226
894.11                    2.8740
894.38                    2.8800
894.64                    2.8860
894.91                    1.7602
895.17                    1.7640
895.44                    1.7677
895.70                    1.7618
895.97                    1.7655
896.24                    1.7692
896.50                    1.7594
896.77                    1.7631
897.03                    1.7669
897.30                    1.8157
897.56                    1.8264
897.83                    1.9616
898.09                    1.9278
898.36                    1.9254
898.62                    1.8128
898.89                    1.8093
899.15                    1.8128
899.42                    1.8011
899.68                    1.8050
899.95                    1.8570
900.22                    1.8854
900.48                    1.8895
900.75                    1.8446
901.01                    1.8829
901.28                    1.8925
901.54                    1.8968
901.81                    1.8453
902.07                    1.8440
902.34                    1.8480
902.60                    1.9341
902.87                    1.9385
903.13                    1.9632
903.40                    1.8995
903.66                    1.9967
903.93                    1.9808
904.20                    2.0952
904.46                    2.0151
904.73                    2.9748
904.99                    2.8809
905.26                    2.9208
905.52                    1.9624
905.79                    1.9396
906.05                    1.9031
906.32                    1.9074
906.58                    1.9116
906.85                    1.9159
907.11                    1.9202
907.38                    1.9245
907.64                    1.9289
907.91                    1.9333
908.18                    2.0373
908.44                    2.0419
908.71                    2.0998
908.97                    2.5392
909.24                    2.5703
909.50                    2.5232
909.77                    2.0088
910.03                    2.2807
910.30                    2.2866
910.56                    2.2712
910.83                    1.9811
911.09                    2.0102
911.36                    2.0277
911.62                    2.0324
911.89                    2.0121
912.16                    2.0630
912.42                    2.2408
912.69                    2.2464
912.95                    2.1918
913.22                    2.0682
913.48                    2.0730
913.75                    2.0954
914.01                    2.1241
914.28                    2.1340
914.54                    2.1685
914.81                    2.1054
915.07                    2.1814
915.34                    2.1387
915.60                    2.2145
915.87                    5.5452
916.14                    5.7331
916.40                    5.6832
916.67                    2.2506
916.93                    2.1281
917.20                    2.1317
917.46                    2.1581
917.73                    2.2140
917.99                    2.2536
918.26                    2.3622
918.52                    2.5138
918.79                    2.5744
919.05                    2.4632
919.32                    2.2734
919.59                    2.3530
919.85                    2.4294
920.00                    3.1782
920.50                    3.2047
921.00                    3.1981
921.50                    3.1822
922.00                    3.1836
922.50                    3.2041
923.00                    3.2018
923.50                    3.1826
924.00                    3.1657
924.50                    3.1568
925.00                    3.1536
925.50                    3.1648
926.00                    3.1674
926.50                    3.1671
927.00                    3.1744
927.50                    3.1405
928.00                    3.0764
928.50                    3.0528
929.00                    3.0489
929.50                    3.0048
930.00                    3.0237
930.50                    4.4609
931.00                    7.2740
931.50                    8.2236
932.00                    5.9619
932.50                    6.4542
933.00                    4.7831
933.50                    3.2254
934.00                    3.3143
934.50                    2.6214
935.00                    2.4109
935.50                    2.4099
936.00                    2.3062
936.50                    2.4532
937.00                    3.2870
937.50                    6.8517
938.00                    9.3415
938.50                    6.8438
939.00                    5.4904
939.50                    4.4183
940.00                    3.6010
940.50                    4.0321
941.00                    3.3512
941.50                    3.2576
942.00                    4.2708
942.50                    4.2804
943.00                    2.9056
943.50                    4.1569
944.00                    6.3912
944.50                    5.3544
945.00                    3.9006
945.50                    3.6208
946.00                    4.3359
946.50                    3.6489
947.00                    3.0309
947.50                    5.9893
948.00                    8.8340
948.50                    5.1222
949.00                    2.7915
949.50                    2.6282
950.00                    3.2251
950.50                    4.1675
951.00                    3.8113
951.50                    4.4713
952.00                    6.1710
952.50                    5.4206
953.00                    3.4414
953.50                    2.7828
954.00                    2.7463
954.50                    2.6474
955.00                    3.2635
955.50                    3.8506
956.00                    3.2801
956.50                    4.0210
957.00                    5.1233
957.50                    4.1816
958.00                    2.8300
958.50                    2.7241
959.00                    2.6574
959.50                    2.6358
960.00                    2.7610
960.50                    3.1082
961.00                    3.4282
961.50                    3.3216
962.00                    3.5872
962.50                    3.8679
963.00                    3.3401
963.50                    2.8836
964.00                    2.7945
964.50                    2.7813
965.00                    2.8595
965.50                    3.0343
966.00                    3.1271
966.50                    3.3728
967.00                    3.8697
967.50                    3.8573
968.00                    4.5495
968.50                    5.3818
969.00                    4.6758
969.50                    5.0704
970.00                    6.6331
970.50                    5.6742
971.00                    4.5520
971.50                    5.8947
972.00                    7.5693
972.50                    6.7768
973.00                    4.2148
973.50                    3.8236
974.00                    4.7259
974.50                    3.9786
975.00                    3.0922
975.50                    2.9401
976.00                    2.8811
976.50                    2.9031
977.00                    2.9512
977.50                    2.9681
978.00                    2.9422
978.50                    4.4136
979.00                   12.1606
979.50                   18.1350
980.00                   13.1736
980.50                    6.7000
981.00                    5.0119
981.50                    4.6090
982.00                    3.7573
982.50                    3.2047
983.00                    3.3814
983.50                    3.2007
984.00                    3.0038
984.50                    4.3141
985.00                    5.9522
985.50                    4.7936
986.00                    3.2148
986.50                    3.1224
987.00                    8.1663
987.50                   13.2910
988.00                    8.0238
988.50                    3.0481
989.00                    3.9497
989.50                    5.8934
990.00                    5.8248
990.50                    3.8817
991.00                    5.8082
991.50                   11.2773
992.00                   10.8446
992.50                    5.3975
993.00                    2.9554
993.50                    3.0631
994.00                    5.8648
994.50                   12.6234
995.00                   14.2854
995.50                   10.7633
996.00                   12.9412
996.50                   12.8893
997.00                    7.0977
997.50                    4.5973
998.00                    3.7996
998.50                    2.9937
999.00                    2.9395
999.50                    3.2500
1000.00                   4.0090
1000.50                   4.2018
1001.00                  10.0516
1001.50                  17.2652
1002.00                  11.7916
1002.50                   6.7944
1003.00                   6.8062
1003.50                   4.4966
1004.00                   3.7627
1004.50                   4.5638
1005.00                   3.8977
1005.50                   3.5043
1006.00                   4.8262
1006.50                   5.7714
1007.00                   5.1245
1007.50                   4.2431
1008.00                   7.0008
1008.50                  10.4514
1009.00                   6.7361
1009.50                   3.1271
1010.00                   4.3178
1010.50                   5.8209
1011.00                   4.7237
1011.50                   3.1785
1012.00                   6.1150
1012.50                  10.8358
1013.00                   8.9062
1013.50                   4.4902
1014.00                   3.1234
1014.50                   3.3033
1015.00                   5.0019
1015.50                   7.2648
1016.00                   7.0408
1016.50                   5.4900
1017.00                  10.5541
1017.50                  16.3382
1018.00                  10.7738
1018.50                   8.5877
1019.00                  13.2449
1019.50                  12.0749
1020.00                   8.1353
1020.50                   9.4418
1021.00                  15.7105
1021.50                  18.4008
1022.00                   9.8448
1022.50                   5.9682
1023.00                   9.9851
1023.50                   9.3469
1024.00                   4.8915
1024.50                   2.8401
1025.00                   2.8392
1025.50                   2.8372
1026.00                   2.8376
1026.50                   2.9037
1027.00                   3.3825
1027.50                   3.7491
1028.00                   5.3974
1028.50                  27.4290
1029.00                  48.3068
1029.50                  32.3474
1030.00                  16.7671
1030.50                  10.2884
1031.00                   6.7991
1031.50                   6.2834
1032.00                   3.9001
1032.50                   3.6004
1033.00                   4.1718
1033.50                   3.5290
1034.00                   3.1749
1034.50                   7.4297
1035.00                  12.0097
1035.50                   7.9772
1036.00                   3.4849
1036.50                   2.9528
1037.00                  15.8691
1037.50                  30.7878
1038.00                  18.0563
1038.50                   3.8846
1039.00                   3.1261
1039.50                   8.4097
1040.00                  13.3186
1040.50                   7.7524
1041.00                   2.8256
1041.50                  15.3710
1042.00                  31.1161
1042.50                  20.3436
1043.00                   5.3773
1043.50                   2.9226
1044.00                   2.7971
1044.50                   3.7974
1045.00                   7.9187
1045.50                  10.0469
1046.00                   5.7882
1046.50                   9.5626
1047.00                  19.8609
1047.50                  15.8513
1048.00                   5.7994
1048.50                   2.7529
1049.00                   2.7504
1049.50                   2.7619
1050.00                   2.7800
1050.50                   4.1899
1051.00                   6.4888
1051.50                   5.8240
1052.00                   5.6939
1052.50                   9.7565
1053.00                  10.2091
1053.50                   5.3104
1054.00                   2.7327
1054.50                   2.7310
1055.00                   2.7292
1055.50                   2.7274
1056.00                   2.7256
1056.50                   2.7304
1057.00                   3.5632
1057.50                   4.4777
1058.00                   3.9216
1058.50                   4.7888
1059.00                   5.9621
1059.50                   4.1514
1060.00                   2.7244
1060.50                   2.7207
1061.00                   2.7115
1061.50                   2.7056
1062.00                   2.7036
1062.50                   2.7014
1063.00                   2.6994
1063.50                   2.7456
1064.00                   3.0106
1064.50                   3.1955
1065.00                   3.3761
1065.50                   3.6515
1066.00                   3.1827
1066.50                   2.7076
1067.00                   2.6842
1067.50                   2.6809
1068.00                   2.7972
1068.50                   3.5593
1069.00                   4.5135
1069.50                   6.0125
1070.00                   7.7615
1070.50                   7.3347
1071.00                   9.9137
1071.50                  12.9712
1072.00                   9.8548
1072.50                  13.9541
1073.00                  21.4980
1073.50                  14.9486
1074.00                   8.5226
1074.50                  11.5340
1075.00                  20.0709
1075.50                  25.1790
1076.00                  12.5728
1076.50                   2.7264
1077.00                   6.7055
1077.50                  10.8766
1078.00                   6.8111
1078.50                   2.7667
1079.00                   2.6523
1079.50                   2.6613
1080.00                   2.6607
1080.50                   2.6620
1081.00                   2.6430
1081.50                   2.6250
1082.00                   2.6272
1082.50                   6.7205
1083.00                  39.1501
1083.50                  65.4825
1084.00                  43.5472
1084.50                  25.0510
1085.00                  13.5363
1085.50                   7.1707
1086.00                  10.0564
1086.50                   6.0355
1087.00                   2.8590
1087.50                   3.9983
1088.00                   4.8055
1088.50                   3.5759
1089.00                   3.7000
1089.50                  10.1195
1090.00                  14.8100
1090.50                   8.2456
1091.00                   2.8084
1091.50                   2.5956
1092.00                  19.4508
1092.50                  40.9108
1093.00                  28.0136
1093.50                   6.9027
1094.00                   2.6164
1094.50                   9.0740
1095.00                  17.3780
1095.50                  12.1234
1096.00                   3.9903
1096.50                   2.7752
1097.00                  24.6240
1097.50                  48.0752
1098.00                  25.6450
1098.50                   3.4437
1099.00                   2.5256
1099.50                   2.5006
1100.00                   2.9671
