# sky background 0.3-1.0um
# GREY optical sky - 80%ile conditions (day 11)
#AM=1.0
#
#derived from sky spectrum with constant slope to match assumed photometric background
#increasingly poor model at very bright sky (day14);  patched to near-IR background at 920nm
#
#1 March 2001 : Phil Puxley

#nm         phot/s/nm/arcsec^2/m^2
320.00                    0.0000
349.99                    0.0000
350.17                    2.2586
350.43                    2.2578
350.70                    2.2570
350.96                    2.2562
351.23                    2.2555
351.49                    2.2547
351.76                    2.2539
352.02                    2.2531
352.29                    2.2524
352.55                    2.2516
352.82                    2.2508
353.08                    2.2500
353.35                    2.2493
353.62                    2.2485
353.88                    2.2477
354.15                    2.2469
354.41                    2.2461
354.68                    2.2454
354.94                    2.2446
355.21                    2.2438
355.47                    2.2430
355.74                    2.2423
356.00                    2.2415
356.27                    2.2407
356.53                    2.2399
356.80                    2.2392
357.07                    2.2384
357.33                    2.2376
357.60                    2.2368
357.86                    2.2361
358.13                    2.2353
358.39                    2.2345
358.66                    2.2337
358.92                    2.2330
359.19                    2.2322
359.45                    2.2314
359.72                    2.2306
359.98                    2.2299
360.25                    2.2291
360.51                    2.2283
360.78                    2.2275
361.05                    2.2267
361.31                    2.2260
361.58                    2.2252
361.84                    2.2244
362.11                    2.2236
362.37                    2.2229
362.64                    2.2221
362.90                    2.2213
363.17                    2.2205
363.43                    2.2198
363.70                    2.2190
363.96                    2.2182
364.23                    2.2174
364.49                    2.2167
364.76                    2.2159
365.03                    2.2151
365.29                    2.2143
365.56                    2.2136
365.82                    2.2128
366.09                    2.2120
366.35                    2.2112
366.62                    2.2105
366.88                    2.2097
367.15                    2.2089
367.41                    2.2081
367.68                    2.2073
367.94                    2.2066
368.21                    2.2058
368.47                    2.2050
368.74                    2.2042
369.01                    2.2035
369.27                    2.2027
369.54                    2.2019
369.80                    2.2011
370.07                    2.2004
370.33                    2.1996
370.60                    2.1988
370.86                    2.1980
371.13                    2.1973
371.39                    2.1965
371.66                    2.1957
371.92                    2.1949
372.19                    2.1942
372.45                    2.1934
372.72                    2.1926
372.99                    2.1918
373.25                    2.1911
373.52                    2.1903
373.78                    2.1895
374.05                    2.1887
374.31                    2.1879
374.58                    2.1872
374.84                    2.1864
375.11                    2.1856
375.37                    2.1848
375.64                    2.1841
375.90                    2.1833
376.17                    2.1825
376.43                    2.1817
376.70                    2.1810
376.97                    2.1802
377.23                    2.1794
377.50                    2.1786
377.76                    2.1779
378.03                    2.1771
378.29                    2.1763
378.56                    2.1755
378.82                    2.1748
379.09                    2.1740
379.35                    2.1732
379.62                    2.1724
379.88                    2.1717
380.15                    2.1709
380.41                    2.1701
380.68                    2.1693
380.95                    2.1685
381.21                    2.1678
381.48                    2.1670
381.74                    2.1662
382.01                    2.1654
382.27                    2.1647
382.54                    2.1639
382.80                    2.1631
383.07                    2.1623
383.33                    2.1616
383.60                    2.1608
383.86                    2.1600
384.13                    2.1592
384.40                    2.1585
384.66                    2.1577
384.93                    2.1569
385.19                    2.1561
385.46                    2.1554
385.72                    2.1546
385.99                    2.1538
386.25                    2.1531
386.52                    2.1523
386.78                    2.1515
387.05                    2.1508
387.31                    2.1500
387.58                    2.1492
387.84                    2.1485
388.11                    2.1477
388.38                    2.1470
388.64                    2.1462
388.91                    2.1455
389.17                    2.1447
389.44                    2.1439
389.70                    2.1432
389.97                    2.1424
390.23                    2.1417
390.50                    2.1410
390.76                    2.1403
391.03                    2.1395
391.29                    2.1388
391.56                    2.1381
391.82                    2.1373
392.09                    2.1366
392.36                    2.1359
392.62                    2.1351
392.89                    2.1344
393.15                    2.1337
393.42                    2.1329
393.68                    2.1322
393.95                    2.1315
394.21                    2.1307
394.48                    2.1300
394.74                    2.1293
395.01                    2.1285
395.27                    2.1278
395.54                    2.1271
395.80                    2.1263
396.07                    2.1256
396.34                    2.1249
396.60                    2.1241
396.87                    2.1234
397.13                    2.1227
397.40                    2.1219
397.66                    2.1212
397.93                    2.1204
398.19                    2.1197
398.46                    2.1190
398.72                    2.1182
398.99                    2.1175
399.25                    2.1167
399.52                    2.1160
399.78                    2.1152
400.05                    2.1145
400.32                    2.1138
400.58                    2.1130
400.85                    2.1123
401.11                    2.1115
401.38                    2.1108
401.64                    2.1100
401.91                    2.1093
402.17                    2.1086
402.44                    2.1078
402.70                    2.1071
402.97                    2.1063
403.23                    2.1056
403.50                    2.1048
403.76                    2.1041
404.03                    2.1033
404.30                    2.1026
404.56                    2.1019
404.83                    2.1011
405.09                    2.1004
405.36                    2.0997
405.62                    2.0989
405.89                    2.0982
406.15                    2.0974
406.42                    2.0967
406.68                    2.0960
406.95                    2.0952
407.21                    2.0945
407.48                    2.0938
407.74                    2.0931
408.01                    2.0923
408.28                    2.0916
408.54                    2.0909
408.81                    2.0902
409.07                    2.0894
409.34                    2.0887
409.60                    2.0880
409.87                    2.0873
410.13                    2.0866
410.40                    2.0859
410.66                    2.0852
410.93                    2.0845
411.19                    2.0838
411.46                    2.0831
411.73                    2.0824
411.99                    2.0817
412.26                    2.0810
412.52                    2.0803
412.79                    2.0796
413.05                    2.0789
413.32                    2.0782
413.58                    2.0775
413.85                    2.0768
414.11                    2.0761
414.38                    2.0754
414.64                    2.0747
414.91                    2.0740
415.17                    2.0733
415.44                    2.0726
415.71                    2.0719
415.97                    2.0712
416.24                    2.0705
416.50                    2.0698
416.77                    2.0691
417.03                    2.0684
417.30                    2.0677
417.56                    2.0669
417.83                    2.0662
418.09                    2.0655
418.36                    2.0648
418.62                    2.0641
418.89                    2.0634
419.15                    2.0626
419.42                    2.0619
419.69                    2.0612
419.95                    2.0605
420.22                    2.0597
420.48                    2.0590
420.75                    2.0582
421.01                    2.0575
421.28                    2.0568
421.54                    2.0560
421.81                    2.0553
422.07                    2.0545
422.34                    2.0538
422.60                    2.0530
422.87                    2.0523
423.13                    2.0516
423.40                    2.0508
423.67                    2.0501
423.93                    2.0493
424.20                    2.0486
424.46                    2.0479
424.73                    2.0471
424.99                    2.0464
425.26                    2.0456
425.52                    2.0449
425.79                    2.0442
426.05                    2.0434
426.32                    2.0427
426.58                    2.0419
426.85                    2.0412
427.11                    2.0405
427.38                    2.0397
427.65                    2.0390
427.91                    2.0383
428.18                    2.0375
428.44                    2.0368
428.71                    2.0361
428.97                    2.0353
429.24                    2.0346
429.50                    2.0339
429.77                    2.0331
430.03                    2.0324
430.30                    2.0317
430.56                    2.0310
430.83                    2.0303
431.09                    2.0295
431.36                    2.0288
431.63                    2.0281
431.89                    2.0274
432.16                    2.0267
432.42                    2.0259
432.69                    2.0252
432.95                    2.0245
433.22                    2.0238
433.48                    2.0231
433.75                    2.0224
434.01                    2.0216
434.28                    2.0209
434.54                    2.0202
434.81                    2.0195
435.07                    2.0188
435.34                    2.0181
435.61                    2.0174
435.87                    2.0167
436.14                    2.0160
436.40                    2.0153
436.67                    2.0145
436.93                    2.0138
437.20                    2.0131
437.46                    2.0124
437.73                    2.0117
437.99                    2.0110
438.26                    2.0103
438.52                    2.0096
438.79                    2.0089
439.05                    2.0083
439.32                    2.0076
439.59                    2.0069
439.85                    2.0062
440.12                    2.0055
440.38                    2.0048
440.65                    2.0042
440.91                    2.0035
441.18                    2.0028
441.44                    2.0022
441.71                    2.0015
441.97                    2.0008
442.24                    2.0002
442.50                    1.9995
442.77                    1.9988
443.04                    1.9982
443.30                    1.9975
443.57                    1.9968
443.83                    1.9962
444.10                    1.9955
444.36                    1.9948
444.63                    1.9941
444.89                    1.9935
445.16                    1.9928
445.42                    1.9921
445.69                    1.9914
445.95                    1.9908
446.22                    1.9901
446.48                    1.9894
446.75                    1.9887
447.02                    1.9881
447.28                    1.9874
447.55                    1.9867
447.81                    1.9860
448.08                    1.9853
448.34                    1.9846
448.61                    1.9839
448.87                    1.9833
449.14                    1.9826
449.40                    1.9819
449.67                    1.9812
449.93                    1.9805
450.20                    1.9798
450.46                    1.9791
450.73                    1.9784
451.00                    1.9776
451.26                    1.9769
451.53                    1.9762
451.79                    1.9755
452.06                    1.9748
452.32                    1.9741
452.59                    1.9734
452.85                    1.9726
453.12                    1.9719
453.38                    1.9712
453.65                    1.9705
453.91                    1.9698
454.18                    1.9691
454.44                    1.9684
454.71                    1.9677
454.98                    1.9670
455.24                    1.9662
455.51                    1.9655
455.77                    1.9648
456.04                    1.9641
456.30                    1.9634
456.57                    1.9627
456.83                    1.9620
457.10                    1.9613
457.36                    1.9606
457.63                    1.9599
457.89                    1.9592
458.16                    1.9585
458.42                    1.9578
458.69                    1.9571
458.96                    1.9564
459.22                    1.9557
459.49                    1.9550
459.75                    1.9543
460.02                    1.9536
460.28                    1.9529
460.55                    1.9522
460.81                    1.9515
461.08                    1.9508
461.34                    1.9501
461.61                    1.9494
461.87                    1.9487
462.14                    1.9480
462.40                    1.9473
462.67                    1.9466
462.94                    1.9460
463.20                    1.9453
463.47                    1.9446
463.73                    1.9439
464.00                    1.9432
464.26                    1.9425
464.53                    1.9418
464.79                    1.9412
465.06                    1.9405
465.32                    1.9398
465.59                    1.9391
465.85                    1.9384
466.12                    1.9378
466.38                    1.9371
466.65                    1.9364
466.92                    1.9357
467.18                    1.9351
467.45                    1.9344
467.71                    1.9337
467.98                    1.9330
468.24                    1.9324
468.51                    1.9317
468.77                    1.9311
469.04                    1.9304
469.30                    1.9297
469.57                    1.9291
469.83                    1.9284
470.10                    1.9278
470.37                    1.9272
470.63                    1.9265
470.90                    1.9259
471.16                    1.9253
471.43                    1.9246
471.69                    1.9240
471.96                    1.9234
472.22                    1.9228
472.49                    1.9221
472.75                    1.9215
473.02                    1.9209
473.28                    1.9202
473.55                    1.9196
473.81                    1.9189
474.08                    1.9183
474.35                    1.9177
474.61                    1.9170
474.88                    1.9164
475.14                    1.9157
475.41                    1.9151
475.67                    1.9145
475.94                    1.9138
476.20                    1.9132
476.47                    1.9125
476.73                    1.9119
477.00                    1.9112
477.26                    1.9105
477.53                    1.9099
477.79                    1.9092
478.06                    1.9086
478.33                    1.9079
478.59                    1.9072
478.86                    1.9065
479.12                    1.9059
479.39                    1.9052
479.65                    1.9045
479.92                    1.9038
480.18                    1.9031
480.45                    1.9024
480.71                    1.9017
480.98                    1.9010
481.24                    1.9002
481.51                    1.8995
481.77                    1.8988
482.04                    1.8981
482.31                    1.8974
482.57                    1.8966
482.84                    1.8959
483.10                    1.8952
483.37                    1.8945
483.63                    1.8938
483.90                    1.8931
484.16                    1.8923
484.43                    1.8916
484.69                    1.8909
484.96                    1.8902
485.22                    1.8895
485.49                    1.8888
485.75                    1.8881
486.02                    1.8873
486.29                    1.8866
486.55                    1.8859
486.82                    1.8852
487.08                    1.8845
487.35                    1.8838
487.61                    1.8831
487.88                    1.8824
488.14                    1.8817
488.41                    1.8810
488.67                    1.8803
488.94                    1.8796
489.20                    1.8789
489.47                    1.8782
489.73                    1.8775
490.00                    1.8768
490.27                    1.8761
490.53                    1.8754
490.80                    1.8747
491.06                    1.8740
491.33                    1.8733
491.59                    1.8727
491.86                    1.8720
492.12                    1.8713
492.39                    1.8706
492.65                    1.8699
492.92                    1.8692
493.18                    1.8686
493.45                    1.8679
493.71                    1.8672
493.98                    1.8665
494.25                    1.8658
494.51                    1.8651
494.78                    1.8645
495.04                    1.8638
495.31                    1.8631
495.57                    1.8624
495.84                    1.8617
496.10                    1.8610
496.37                    1.8604
496.63                    1.8597
496.90                    1.8590
497.16                    1.8583
497.43                    1.8576
497.70                    1.8570
497.96                    1.8563
498.23                    1.8556
498.49                    1.8549
498.76                    1.8543
499.02                    1.8536
499.29                    1.8529
499.55                    1.8522
499.82                    1.8515
500.08                    1.8509
500.35                    1.8502
500.61                    1.8495
500.88                    1.8489
501.14                    1.8482
501.41                    1.8475
501.68                    1.8469
501.94                    1.8462
502.21                    1.8455
502.47                    1.8449
502.74                    1.8442
503.00                    1.8435
503.27                    1.8429
503.53                    1.8422
503.80                    1.8415
504.06                    1.8409
504.33                    1.8402
504.59                    1.8395
504.86                    1.8389
505.12                    1.8382
505.39                    1.8375
505.66                    1.8369
505.92                    1.8362
506.19                    1.8355
506.45                    1.8349
506.72                    1.8342
506.98                    1.8335
507.25                    1.8329
507.51                    1.8322
507.78                    1.8315
508.04                    1.8309
508.31                    1.8302
508.57                    1.8295
508.84                    1.8289
509.10                    1.8282
509.37                    1.8275
509.64                    1.8269
509.90                    1.8263
510.17                    1.8256
510.43                    1.8250
510.70                    1.8243
510.96                    1.8242
511.23                    1.8206
511.49                    1.8239
511.76                    1.8253
512.02                    1.8240
512.29                    1.8126
512.55                    1.7993
512.82                    1.7990
513.08                    1.8105
513.35                    1.8171
513.62                    1.8128
513.88                    1.8047
514.15                    1.8061
514.41                    1.8065
514.68                    1.8083
514.94                    1.8035
515.21                    1.8007
515.47                    1.7945
515.74                    1.7913
516.00                    1.7923
516.27                    1.7847
516.53                    1.7782
516.80                    1.7732
517.06                    1.7866
517.33                    1.7922
517.60                    1.8007
517.86                    1.7876
518.13                    1.7927
518.39                    1.7932
518.66                    1.8094
518.92                    1.8030
519.19                    1.8136
519.45                    1.9204
519.72                    2.0478
519.98                    2.0841
520.25                    1.9846
520.51                    1.8599
520.78                    1.8106
521.04                    1.7931
521.31                    1.7902
521.58                    1.7915
521.84                    1.7977
522.11                    1.8094
522.37                    1.7956
522.64                    1.7823
522.90                    1.7725
523.17                    1.7791
523.43                    1.7847
523.70                    1.7893
523.96                    1.7906
524.23                    1.7871
524.49                    1.7809
524.76                    1.7752
525.03                    1.7829
525.29                    1.7865
525.56                    1.7910
525.82                    1.7773
526.09                    1.7612
526.35                    1.7509
526.62                    1.7506
526.88                    1.7602
527.15                    1.7768
527.41                    1.7906
527.68                    1.7941
527.94                    1.7986
528.21                    1.7850
528.47                    1.7712
528.74                    1.7550
529.01                    1.7606
529.27                    1.7692
529.54                    1.7762
529.80                    1.7774
530.07                    1.7772
530.33                    1.7718
530.60                    1.7703
530.86                    1.7859
531.13                    1.7879
531.39                    1.7859
531.66                    1.7670
531.92                    1.7628
532.19                    1.7593
532.45                    1.7673
532.72                    1.7830
532.99                    1.8031
533.25                    1.7937
533.52                    1.7754
533.78                    1.7558
534.05                    1.7557
534.31                    1.7608
534.58                    1.7634
534.84                    1.7590
535.11                    1.7514
535.37                    1.7498
535.64                    1.7567
535.90                    1.7614
536.17                    1.7594
536.43                    1.7535
536.70                    1.7509
536.97                    1.7482
537.23                    1.7559
537.50                    1.7519
537.76                    1.7455
538.03                    1.7307
538.29                    1.7277
538.56                    1.7301
538.82                    1.7420
539.09                    1.7382
539.35                    1.7366
539.62                    1.7292
539.88                    1.7322
540.15                    1.7342
540.41                    1.7320
540.68                    1.7402
540.95                    1.7345
541.21                    1.7426
541.48                    1.7313
541.74                    1.7375
542.01                    1.7243
542.27                    1.7215
542.54                    1.7190
542.80                    1.7238
543.07                    1.7343
543.33                    1.7424
543.60                    1.7415
543.86                    1.7423
544.13                    1.7259
544.39                    1.7306
544.66                    1.7254
544.93                    1.7376
545.19                    1.7359
545.46                    1.7336
545.72                    1.7306
545.99                    1.7342
546.25                    1.7396
546.52                    1.7422
546.78                    1.7351
547.05                    1.7188
547.31                    1.7047
547.58                    1.7051
547.84                    1.7133
548.11                    1.7128
548.37                    1.7182
548.64                    1.7233
548.91                    1.7406
549.17                    1.7363
549.44                    1.7431
549.70                    1.7388
549.97                    1.7416
550.23                    1.7353
550.50                    1.7355
550.76                    1.7345
551.03                    1.7317
551.29                    1.7275
551.56                    1.7255
551.82                    1.7235
552.09                    1.7162
552.36                    1.7045
552.62                    1.6997
552.89                    1.7031
553.15                    1.7220
553.42                    1.7255
553.68                    1.7346
553.95                    1.7383
554.21                    1.7588
554.48                    1.7627
554.74                    1.7560
555.01                    1.7432
555.27                    1.7357
555.54                    1.7288
555.80                    1.7323
556.07                    1.7450
556.34                    1.7556
556.60                    1.7559
556.87                    1.7678
557.13                    3.7302
557.40                    6.4670
557.66                    8.3635
557.93                    6.8577
558.19                    4.1181
558.46                    2.1968
558.72                    1.7433
558.99                    1.7367
559.25                    1.7314
559.52                    1.7198
559.78                    1.7192
560.05                    1.7357
560.32                    1.7452
560.58                    1.7501
560.85                    1.7262
561.11                    1.6995
561.38                    1.6989
561.64                    1.7183
561.91                    1.7507
562.17                    1.7614
562.44                    1.7571
562.70                    1.7310
562.97                    1.7075
563.23                    1.6913
563.50                    1.6974
563.76                    1.7052
564.03                    1.7097
564.30                    1.7182
564.56                    1.7293
564.83                    1.7268
565.09                    1.7093
565.36                    1.6888
565.62                    1.6878
565.89                    1.6940
566.15                    1.7035
566.42                    1.7159
566.68                    1.7247
566.95                    1.7185
567.21                    1.7111
567.48                    1.7057
567.74                    1.7135
568.01                    1.7020
568.28                    1.6957
568.54                    1.6798
568.81                    1.6906
569.07                    1.7046
569.34                    1.7199
569.60                    1.7313
569.87                    1.7191
570.13                    1.7175
570.40                    1.6994
570.66                    1.7027
570.93                    1.6915
571.19                    1.6932
571.46                    1.6961
571.72                    1.7127
571.99                    1.7208
572.26                    1.7235
572.52                    1.7096
572.79                    1.7072
573.05                    1.7020
573.32                    1.7029
573.58                    1.6981
573.85                    1.6919
574.11                    1.6981
574.38                    1.7008
574.64                    1.7032
574.91                    1.6892
575.17                    1.6834
575.44                    1.6773
575.70                    1.6875
575.97                    1.6780
576.24                    1.6791
576.50                    1.6782
576.77                    1.6889
577.03                    1.6902
577.30                    1.6853
577.56                    1.6801
577.83                    1.6796
578.09                    1.6760
578.36                    1.6757
578.62                    1.6656
578.89                    1.6635
579.15                    1.6649
579.42                    1.6666
579.68                    1.6736
579.95                    1.6760
580.22                    1.6905
580.48                    1.6908
580.75                    1.6831
581.01                    1.6710
581.28                    1.6714
581.54                    1.6774
581.81                    1.6942
582.07                    1.7049
582.34                    1.7077
582.60                    1.6925
582.87                    1.6906
583.13                    1.6893
583.40                    1.6886
583.67                    1.6865
583.93                    1.7006
584.20                    1.7859
584.46                    1.7771
584.73                    1.7655
584.99                    1.6810
585.26                    1.6879
585.52                    1.6771
585.79                    1.6838
586.05                    1.7193
586.32                    1.8000
586.58                    1.8436
586.85                    1.8346
587.11                    1.7768
587.38                    1.7552
587.65                    1.7381
587.91                    1.7362
588.18                    1.7486
588.44                    2.2256
588.71                    2.7482
588.97                    3.1691
589.24                    2.9863
589.50                    2.6404
589.77                    2.2314
590.03                    1.9489
590.30                    1.7874
590.56                    1.7669
590.83                    1.7777
591.09                    1.8102
591.36                    1.8323
591.63                    1.8248
591.89                    1.7974
592.16                    1.7732
592.42                    1.7628
592.69                    1.7782
592.95                    1.8187
593.22                    1.8597
593.48                    1.8185
593.75                    1.7505
594.01                    1.7023
594.28                    1.7212
594.54                    1.7367
594.81                    1.7719
595.07                    1.8015
595.34                    1.8032
595.61                    1.7621
595.87                    1.7072
596.14                    1.6883
596.40                    1.6875
596.67                    1.7124
596.93                    1.7369
597.20                    1.7607
597.46                    1.7796
597.73                    1.7717
597.99                    1.7418
598.26                    1.7005
598.52                    1.6900
598.79                    1.7026
599.05                    1.6981
599.32                    1.6882
599.59                    1.6829
599.85                    1.6895
600.12                    1.7051
600.38                    1.6960
600.65                    1.6871
600.91                    1.6637
601.18                    1.6521
601.44                    1.6401
601.71                    1.6332
601.97                    1.6263
602.24                    1.6236
602.50                    1.6330
602.77                    1.6441
603.03                    1.6481
603.30                    1.6417
603.57                    1.6335
603.83                    1.6292
604.10                    1.6277
604.36                    1.6267
604.63                    1.6200
604.89                    1.6082
605.16                    1.5956
605.42                    1.5875
605.69                    1.5880
605.95                    1.5938
606.22                    1.6040
606.48                    1.6081
606.75                    1.5990
607.01                    1.5960
607.28                    1.5881
607.55                    1.5964
607.81                    1.5859
608.08                    1.5884
608.34                    1.5816
608.61                    1.5819
608.87                    1.5819
609.14                    1.5814
609.40                    1.5905
609.67                    1.5925
609.93                    1.5937
610.20                    1.5887
610.46                    1.5909
610.73                    1.5885
611.00                    1.5858
611.26                    1.5723
611.53                    1.5706
611.79                    1.5585
612.06                    1.5547
612.32                    1.5574
612.59                    1.5615
612.85                    1.5630
613.12                    1.5523
613.38                    1.5785
613.65                    1.6042
613.91                    1.6293
614.18                    1.6142
614.44                    1.6041
614.71                    1.5806
614.98                    1.5751
615.24                    1.5974
615.51                    1.6380
615.77                    1.6411
616.04                    1.6001
616.30                    1.5751
616.57                    1.5959
616.83                    1.6275
617.10                    1.9288
617.36                    1.9179
617.63                    1.8956
617.89                    1.5752
618.16                    1.5545
618.42                    1.5408
618.69                    1.5371
618.96                    1.5340
619.22                    1.5404
619.49                    1.5411
619.75                    1.5668
620.02                    1.5933
620.28                    1.6053
620.55                    1.5826
620.81                    1.5606
621.08                    1.5588
621.34                    1.5672
621.61                    1.5912
621.87                    1.6184
622.14                    1.6172
622.40                    1.5830
622.67                    1.5594
622.94                    1.6175
623.20                    1.7749
623.47                    1.9023
623.73                    1.9310
624.00                    1.8287
624.26                    1.7260
624.53                    1.6313
624.79                    1.5840
625.06                    1.5926
625.32                    1.6909
625.59                    1.8041
625.85                    1.8375
626.12                    1.7830
626.38                    1.7101
626.65                    1.6662
626.92                    1.6348
627.18                    1.6098
627.45                    1.6046
627.71                    1.6102
627.98                    1.6226
628.24                    1.6688
628.51                    1.7494
628.77                    1.7798
629.04                    1.7734
629.30                    2.8977
629.57                    8.5066
629.83                   13.8955
630.10                   16.6913
630.36                   11.1304
630.63                    5.7735
630.90                    1.7533
631.16                    1.6391
631.43                    1.5580
631.69                    1.5964
631.96                    1.6570
632.22                    1.6661
632.49                    1.7230
632.75                    1.7545
633.02                    1.8058
633.28                    1.7063
633.55                    1.5986
633.81                    1.5193
634.08                    1.5136
634.34                    1.5517
634.61                    1.5736
634.88                    1.6012
635.14                    1.6391
635.41                    1.7086
635.67                    2.2712
635.94                    3.8728
636.20                    5.5628
636.47                    6.1198
636.73                    4.4564
637.00                    2.6637
637.26                    1.5236
637.53                    1.5335
637.79                    1.5513
638.06                    1.5649
638.33                    1.5794
638.59                    1.5805
638.86                    1.5577
639.12                    1.5177
639.39                    1.4924
639.65                    1.4809
639.92                    1.4877
640.18                    1.4843
640.45                    1.4935
640.71                    1.4862
640.98                    1.4893
641.24                    1.4856
641.51                    1.4957
641.77                    1.5109
642.04                    1.5220
642.31                    1.5136
642.57                    1.4931
642.84                    1.4795
643.10                    1.4752
643.37                    1.4665
643.63                    1.4525
643.90                    1.4467
644.16                    1.4503
644.43                    1.4607
644.69                    1.4707
644.96                    1.4871
645.22                    1.5150
645.49                    1.5242
645.75                    1.5305
646.02                    1.5891
646.29                    1.6778
646.55                    1.7572
646.82                    1.7456
647.08                    1.6692
647.35                    1.5945
647.61                    1.5273
647.88                    1.5143
648.14                    1.4954
648.41                    1.4931
648.67                    1.4750
648.94                    1.4644
649.20                    1.4645
649.47                    1.4695
649.73                    1.4774
650.00                    1.4808
650.27                    1.5071
650.53                    1.4999
650.80                    1.4879
651.06                    1.4584
651.33                    1.4642
651.59                    1.4592
651.86                    1.4539
652.12                    1.4569
652.39                    1.4646
652.65                    1.4665
652.92                    1.4659
653.18                    1.4640
653.45                    1.4701
653.71                    1.4738
653.98                    1.4821
654.25                    1.4838
654.51                    1.4719
654.78                    1.4756
655.04                    1.5316
655.31                    1.5405
655.57                    1.5399
655.84                    1.4823
656.10                    1.4730
656.37                    1.4552
656.63                    1.5216
656.90                    1.5310
657.16                    1.5375
657.43                    1.4994
657.69                    1.4888
657.96                    1.4880
658.23                    1.4541
658.49                    1.4598
658.76                    1.4538
659.02                    1.4506
659.29                    1.4496
659.55                    1.4494
659.82                    1.4493
660.08                    1.4503
660.35                    1.4502
660.61                    1.4518
660.88                    1.4452
661.14                    1.4579
661.41                    1.4560
661.67                    1.4574
661.94                    1.4445
662.21                    1.4460
662.47                    1.4645
662.74                    1.4839
663.00                    1.4824
663.27                    1.4660
663.53                    1.4554
663.80                    1.4551
664.06                    1.4510
664.33                    1.4418
664.59                    1.4432
664.86                    1.4434
665.12                    1.4460
665.39                    1.4490
665.66                    1.4514
665.92                    1.4488
666.19                    1.4440
666.45                    1.4478
666.72                    1.4475
666.98                    1.4474
667.25                    1.4404
667.51                    1.4402
667.78                    1.4420
668.04                    1.4419
668.31                    1.4417
668.57                    1.4397
668.84                    1.4396
669.10                    1.4394
669.37                    1.4395
669.64                    1.4490
669.90                    1.4515
670.17                    1.4512
670.43                    1.4560
670.70                    1.4732
670.96                    1.5010
671.23                    1.4961
671.49                    1.4909
671.76                    1.4782
672.02                    1.4712
672.29                    1.4673
672.55                    1.4558
672.82                    1.4526
673.08                    1.4412
673.35                    1.4680
673.62                    1.4679
673.88                    1.4678
674.15                    1.4379
674.41                    1.4392
674.68                    1.4400
674.94                    1.4399
675.21                    1.4387
675.47                    1.4404
675.74                    1.4391
676.00                    1.4422
676.27                    1.4410
676.53                    1.4406
676.80                    1.4492
677.06                    1.4650
677.33                    1.4650
677.60                    1.4544
677.86                    1.4363
678.13                    1.4361
678.39                    1.4341
678.66                    1.4341
678.92                    1.4545
679.19                    1.4546
679.45                    1.4583
679.72                    1.4568
679.98                    1.4564
680.25                    1.4522
680.51                    1.4328
680.78                    1.4326
681.04                    1.4325
681.31                    1.4324
681.58                    1.4322
681.84                    1.4321
682.11                    1.4319
682.37                    1.4318
682.64                    1.4509
682.90                    1.4558
683.17                    1.7958
683.43                    1.7767
683.70                    1.7717
683.96                    1.4456
684.23                    1.4455
684.49                    1.4454
684.76                    1.4305
685.02                    1.4303
685.29                    1.4302
685.56                    1.4300
685.82                    1.4298
686.09                    1.9318
686.35                    1.9322
686.62                    1.9325
686.88                    1.4399
687.15                    1.4397
687.41                    1.4395
687.68                    1.4287
687.94                    1.4465
688.21                    1.4464
688.47                    1.4473
688.74                    1.4291
689.00                    1.4320
689.27                    1.4308
689.54                    1.4336
689.80                    1.6892
690.07                    1.6895
690.33                    1.6921
690.60                    1.4321
690.86                    1.4319
691.13                    1.4265
691.39                    1.4264
691.66                    1.4385
691.92                    1.4383
692.19                    1.4381
692.45                    1.4256
692.72                    1.4255
692.99                    1.4253
693.25                    1.4335
693.52                    1.4424
693.78                    1.4556
694.05                    1.4486
694.31                    1.4407
694.58                    1.4271
694.84                    1.4394
695.11                    1.4442
695.37                    1.4634
695.64                    1.4782
695.90                    1.4878
696.17                    1.4732
696.43                    1.4469
696.70                    1.4936
696.97                    1.4986
697.23                    1.5064
697.50                    1.4471
697.76                    1.4378
698.03                    1.4266
698.29                    1.4221
698.56                    1.4288
698.82                    1.4310
699.09                    1.4308
699.35                    1.4307
699.62                    1.4324
699.88                    1.4448
700.15                    1.4401
700.41                    1.4356
700.68                    1.4227
700.95                    1.4190
701.21                    1.4188
701.48                    1.4185
701.74                    1.4182
702.01                    1.4180
702.27                    1.4177
702.54                    1.4179
702.80                    1.4209
703.07                    1.4221
703.33                    1.4214
703.60                    1.4222
703.86                    1.4629
704.13                    1.4776
704.39                    1.4734
704.66                    1.4321
704.93                    1.4288
705.19                    1.4282
705.46                    1.4266
705.72                    1.4270
705.99                    1.4393
706.25                    1.4391
706.52                    1.4294
706.78                    1.4409
707.05                    1.4608
707.31                    1.4574
707.58                    1.4424
707.84                    1.4309
708.11                    1.4307
708.37                    1.4207
708.64                    1.4119
708.91                    1.4119
709.17                    1.4117
709.44                    1.4179
709.70                    1.4189
709.97                    1.4186
710.23                    1.4116
710.50                    1.4387
710.76                    1.4489
711.03                    1.4489
711.29                    1.4197
711.56                    1.4090
711.82                    1.4086
712.09                    1.4083
712.35                    1.4081
712.62                    1.4078
712.89                    1.4133
713.15                    1.4131
713.42                    1.4129
713.68                    1.4171
713.95                    1.4169
714.21                    1.4167
714.48                    1.4062
714.74                    1.4060
715.01                    1.4058
715.27                    1.4086
715.54                    1.4173
715.80                    1.4171
716.07                    1.4138
716.33                    1.4092
716.60                    1.4089
716.87                    1.4087
717.13                    1.4040
717.40                    1.4038
717.66                    1.4071
717.93                    1.4069
718.19                    1.4067
718.46                    1.4029
718.72                    1.4027
718.99                    1.4025
719.25                    1.4023
719.52                    1.4021
719.78                    1.4019
720.05                    1.4017
720.32                    1.4016
720.58                    1.4014
720.85                    1.4013
721.11                    1.4011
721.38                    1.4010
721.64                    1.4008
721.91                    1.4007
722.17                    1.4027
722.44                    1.4026
722.70                    1.4047
722.97                    1.4023
723.23                    1.4022
723.50                    1.3998
723.76                    1.5143
724.03                    1.5145
724.30                    1.6111
724.56                    1.5082
724.83                    1.5111
725.09                    1.4140
725.36                    1.4057
725.62                    1.4027
725.89                    1.4026
726.15                    1.3983
726.42                    1.3981
726.68                    1.4062
726.95                    1.4061
727.21                    1.4998
727.48                    1.4917
727.74                    1.4917
728.01                    1.3973
728.28                    1.4035
728.54                    1.4034
728.81                    1.4056
729.07                    1.4010
729.34                    1.5809
729.60                    1.5788
729.87                    1.5771
730.13                    1.4238
730.40                    1.4243
730.66                    1.4242
730.93                    1.4233
731.19                    1.4226
731.46                    1.4502
731.72                    1.4565
731.99                    1.4565
732.26                    1.4286
732.52                    1.3949
732.79                    1.3984
733.05                    1.3983
733.32                    1.3981
733.58                    1.3943
733.85                    3.1361
734.11                    3.1523
734.38                    3.1549
734.64                    1.4127
734.91                    1.3999
735.17                    1.3998
735.44                    1.4091
735.70                    1.4080
735.97                    1.4135
736.24                    1.3986
736.50                    1.4045
736.77                    1.3987
737.03                    1.4183
737.30                    1.4147
737.56                    1.4330
737.83                    1.4173
738.09                    1.4371
738.36                    1.4189
738.62                    1.4151
738.89                    1.3927
739.15                    1.3923
739.42                    1.3916
739.68                    1.3957
739.95                    1.4033
740.22                    1.4034
740.48                    1.3993
740.75                    1.4010
741.01                    1.4377
741.28                    1.4393
741.54                    1.4606
741.81                    1.4232
742.07                    1.4296
742.34                    1.3981
742.60                    1.4215
742.87                    1.4122
743.13                    1.4201
743.40                    1.3963
743.66                    1.4125
743.93                    1.4091
744.20                    1.4116
744.46                    1.3950
744.73                    1.3948
744.99                    1.4057
745.26                    1.4056
745.52                    1.4021
745.79                    1.4021
746.05                    1.4040
746.32                    1.4155
746.58                    1.4131
746.85                    1.6010
747.11                    1.6306
747.38                    1.6197
747.64                    1.5292
747.91                    1.5005
748.18                    1.5214
748.44                    1.4236
748.71                    1.4161
748.97                    1.3942
749.24                    1.3950
749.50                    1.4025
749.77                    1.4209
750.03                    1.4338
750.30                    1.4204
750.56                    1.4190
750.83                    1.4889
751.09                    1.4913
751.36                    1.5273
751.63                    1.4465
751.89                    1.4466
752.16                    1.7739
752.42                    1.7736
752.69                    1.7809
752.95                    1.4267
753.22                    1.4432
753.48                    1.4411
753.75                    1.4683
754.01                    1.4638
754.28                    1.4576
754.54                    1.4026
754.81                    1.4105
755.07                    1.4485
755.34                    1.4567
755.61                    1.4328
755.87                    1.3985
756.14                    1.4085
756.40                    1.4210
756.67                    1.4166
756.93                    2.0487
757.20                    2.1217
757.46                    2.1205
757.73                    1.4721
757.99                    1.3920
758.26                    1.3998
758.52                    1.3958
758.79                    1.3892
759.05                    1.3859
759.32                    1.3859
759.59                    1.5817
759.85                    1.5772
760.12                    1.5772
760.38                    1.3812
760.65                    1.3812
760.91                    1.3813
761.18                    1.3895
761.44                    1.3895
761.71                    1.4010
761.97                    1.4118
762.24                    1.4119
762.50                    1.4021
762.77                    1.3833
763.03                    1.3907
763.30                    1.3891
763.57                    1.3907
763.83                    1.3833
764.10                    1.3833
764.36                    1.4106
764.63                    1.4107
764.89                    1.4108
765.16                    1.3821
765.42                    1.3822
765.69                    1.3822
765.95                    1.5834
766.22                    1.5837
766.48                    1.5839
766.75                    1.3826
767.01                    1.3867
767.28                    1.3868
767.55                    1.3869
767.81                    1.3857
768.08                    1.3858
768.34                    1.3869
768.61                    1.3843
768.87                    1.4087
769.14                    1.4079
769.40                    1.4080
769.67                    1.4196
769.93                    1.4250
770.20                    1.4251
770.46                    1.4197
770.73                    1.4344
770.99                    3.2153
771.26                    3.5537
771.53                    3.9144
771.79                    2.1697
772.06                    1.8196
772.32                    1.8056
772.59                    1.7699
772.85                    1.7588
773.12                    1.4178
773.38                    1.4180
773.65                    1.4109
773.91                    1.3900
774.18                    1.3902
774.44                    1.3939
774.71                    1.4081
774.97                    1.4277
775.24                    1.4244
775.51                    1.4064
775.77                    1.4150
776.04                    1.4152
776.30                    1.4165
776.57                    1.3887
776.83                    1.3889
777.10                    1.4522
777.36                    1.4524
777.63                    1.4527
777.89                    1.3886
778.16                    1.3933
778.42                    1.4234
778.69                    1.4346
778.96                    1.4713
779.22                    1.4451
779.49                    1.4343
779.75                    1.3935
780.02                    1.4070
780.28                    1.4071
780.55                    1.7756
780.81                    1.7589
781.08                    1.7589
781.34                    1.4122
781.61                    1.4614
781.87                    5.3188
782.14                    5.2959
782.40                    5.2451
782.67                    1.3992
782.94                    1.3995
783.20                    1.3997
783.47                    1.3940
783.73                    1.3942
784.00                    1.3945
784.26                    1.3940
784.53                    1.3942
784.79                    1.4002
785.06                    4.2430
785.32                    4.2416
785.59                    4.2346
785.85                    1.3956
786.12                    1.3959
786.38                    1.3961
786.65                    1.3964
786.92                    1.3967
787.18                    1.3970
787.45                    1.3973
787.71                    1.3976
787.98                    1.3979
788.24                    1.3982
788.51                    1.4072
788.77                    1.4961
789.04                    1.4965
789.30                    1.4882
789.57                    1.3999
789.83                    1.4002
790.10                    1.4006
790.36                    1.4009
790.63                    1.4013
790.90                    1.4035
791.16                    1.4039
791.43                    1.4042
791.69                    1.4352
791.96                    1.4356
792.22                    1.4359
792.49                    1.4039
792.75                    1.4294
793.02                    1.4297
793.28                    1.4301
793.55                    1.4055
793.81                    1.4059
794.08                    1.4069
794.34                    1.4444
794.61                    1.4704
794.88                    1.4701
795.14                    1.4386
795.41                    1.4135
795.67                    1.4140
795.94                    1.4092
796.20                    4.0667
796.47                    4.0679
796.73                    4.0691
797.00                    1.4111
797.26                    1.4162
797.53                    1.4166
797.79                    1.4171
798.06                    1.4130
798.32                    1.4135
798.59                    1.4140
798.86                    1.4235
799.12                    1.4496
799.39                    1.4501
799.65                    1.4417
799.92                    1.4179
800.18                    1.4231
800.45                    1.4237
800.71                    1.4229
800.98                    1.4188
801.24                    1.4881
801.51                    1.4888
801.77                    1.6017
802.04                    1.5424
802.30                    3.0702
802.57                    3.0618
802.84                    3.0568
803.10                    1.5292
803.37                    1.4300
803.63                    1.4385
803.90                    1.4343
804.16                    1.4337
804.43                    1.4265
804.69                    1.4661
804.96                    1.6877
805.22                    1.7016
805.49                    1.6837
805.75                    1.4971
806.02                    1.4849
806.29                    1.4774
806.55                    1.4728
806.82                    1.5053
807.08                    1.4940
807.35                    1.4900
807.61                    1.4903
807.88                    1.5317
808.14                    1.6003
808.41                    1.5712
808.67                    1.5312
808.94                    1.4393
809.20                    1.4416
809.47                    1.4571
809.73                    1.4581
810.00                    1.7877
810.27                    1.7736
810.53                    1.8116
810.80                    1.4852
811.06                    1.5015
811.33                    1.4713
811.59                    1.4804
811.86                    1.4882
812.12                    1.4848
812.39                    1.5196
812.65                    1.5053
812.92                    1.5296
813.18                    1.4886
813.45                    1.4904
813.71                    1.4928
813.98                    1.5029
814.25                    1.5045
814.51                    1.5384
814.78                    1.7309
815.04                    1.7282
815.31                    1.6955
815.57                    1.5196
815.84                    1.5146
816.10                    1.4911
816.37                    1.5673
816.63                    1.6158
816.90                    1.6486
817.16                    1.5480
817.43                    1.5030
817.69                    1.4862
817.96                    1.4897
818.23                    1.4914
818.49                    1.5933
818.76                    1.6204
819.02                    1.6511
819.29                    1.6320
819.55                    1.5989
819.82                    1.5669
820.08                    1.4693
820.35                    1.4700
820.61                    1.4899
820.88                    1.5115
821.14                    1.5220
821.41                    1.5062
821.67                    1.4931
821.94                    1.5112
822.21                    1.5151
822.47                    1.5208
822.74                    1.5210
823.00                    1.5173
823.27                    1.5276
823.53                    1.5032
823.80                    1.5023
824.06                    1.4802
824.33                    1.5277
824.59                    1.5309
824.86                    1.5565
825.12                    1.5090
825.39                    1.5335
825.65                    1.5559
825.92                    1.6103
826.19                    1.6637
826.45                    1.6331
826.72                    1.5804
826.98                    1.5438
827.25                    1.5294
827.51                    1.7393
827.78                    1.6987
828.04                    1.6998
828.31                    1.5009
828.57                    4.4229
828.84                    4.4891
829.10                    4.4999
829.37                    2.2047
829.63                    3.6761
829.90                    3.6960
830.17                    3.0632
830.43                    1.5665
830.70                    1.5365
830.96                    1.5375
831.23                    1.5229
831.49                    1.5817
831.76                    1.5827
832.02                    1.5615
832.29                    1.5044
832.55                    1.5052
832.82                    1.5061
833.08                    1.5071
833.35                    1.5081
833.62                    1.5402
833.88                    1.5988
834.15                    2.4665
834.41                    2.4517
834.68                    2.4880
834.94                    1.6208
835.21                    1.6213
835.47                    1.5301
835.74                    1.5402
836.00                    1.5272
836.27                    1.5922
836.53                    1.5843
836.80                    1.5855
837.06                    1.5462
837.33                    1.5474
837.60                    1.5495
837.86                    1.5269
838.13                    1.6170
838.39                    1.6206
838.66                    1.6220
838.92                    1.5338
839.19                    1.5340
839.45                    1.5585
839.72                    1.6071
839.98                    1.6061
840.25                    1.5839
840.51                    1.6895
840.78                    1.7516
841.04                    1.7549
841.31                    1.6731
841.58                    1.6254
841.84                    1.6550
842.11                    1.6517
842.37                    1.7050
842.64                    1.7837
842.90                    1.7323
843.17                    1.7562
843.43                    1.6745
843.70                    1.6719
843.96                    1.5902
844.23                    1.5674
844.49                    1.5625
844.76                    1.5607
845.02                    1.5898
845.29                    1.5903
845.56                    1.5918
845.82                    1.5654
846.09                    1.5669
846.35                    1.5683
846.62                    1.6052
846.88                    1.6077
847.15                    1.6092
847.41                    1.5750
847.68                    1.5756
847.94                    1.5771
848.21                    1.5786
848.47                    1.5801
848.74                    1.5816
849.00                    1.5916
849.27                    1.5931
849.54                    1.6546
849.80                    1.6479
850.07                    1.6672
850.33                    1.6358
850.60                    1.6403
850.86                    1.6243
851.13                    1.6469
851.39                    1.6478
851.66                    1.6525
851.92                    1.6397
852.19                    1.6795
852.45                    1.6782
852.72                    1.6458
852.98                    1.6071
853.25                    1.6088
853.52                    1.6104
853.78                    1.6121
854.05                    1.6138
854.31                    1.6155
854.58                    2.0486
854.84                    2.0507
855.11                    2.0528
855.37                    1.6220
855.64                    1.6237
855.90                    1.6255
856.17                    1.6272
856.43                    1.6289
856.70                    1.6307
856.96                    1.6324
857.23                    1.6342
857.50                    1.6360
857.76                    1.6378
858.03                    1.6396
858.29                    1.6414
858.56                    1.8283
858.82                    1.8303
859.09                    1.8324
859.35                    1.6885
859.62                    1.6904
859.88                    1.6922
860.15                    1.6541
860.41                    1.6560
860.68                    1.6579
860.95                    1.6598
861.21                    1.6617
861.48                    1.6636
861.74                    1.6758
862.01                    2.0865
862.27                    2.0893
862.54                    2.9474
862.80                    2.5404
863.07                    2.7824
863.33                    1.9158
863.60                    1.9181
863.86                    1.6807
864.13                    1.6826
864.39                    1.9970
864.66                    2.0880
864.93                    2.0904
865.19                    2.1067
865.46                    2.0202
865.72                    2.0225
865.99                    1.6966
866.25                    2.4735
866.52                    2.4764
866.78                    3.4630
867.05                    2.6896
867.31                    3.4088
867.58                    2.4378
867.84                    2.6935
868.11                    1.9782
868.37                    1.9688
868.64                    1.7173
868.91                    1.8175
869.17                    1.8198
869.44                    1.8221
869.70                    1.7318
869.97                    1.7339
870.23                    1.7359
870.50                    1.7342
870.76                    1.7364
871.03                    1.7386
871.29                    1.7385
871.56                    1.7407
871.82                    1.7429
872.09                    1.7451
872.35                    1.7474
872.62                    1.7496
872.89                    1.7519
873.15                    1.7542
873.42                    1.7564
873.68                    1.7587
873.95                    1.7610
874.21                    1.8310
874.48                    1.8335
874.74                    1.8823
875.01                    1.8205
875.27                    1.8229
875.54                    1.8798
875.80                    2.3982
876.07                    2.4289
876.33                    4.0228
876.60                    3.6000
876.87                    3.5746
877.13                    1.8838
877.40                    1.7937
877.66                    1.7962
877.93                    1.7985
878.19                    1.8030
878.46                    1.8360
878.72                    1.8384
878.99                    1.8365
879.25                    1.8081
879.52                    1.8106
879.78                    1.8130
880.05                    1.8154
880.31                    1.8181
880.58                    1.8206
880.85                    1.8231
881.11                    1.8256
881.38                    1.8282
881.64                    1.8307
881.91                    1.8333
882.17                    1.8672
882.44                   14.7748
882.70                   14.8055
882.97                   14.8110
883.23                    1.8636
883.50                    1.8897
883.76                    1.8803
884.03                    1.8830
884.29                    1.8567
884.56                    1.8593
884.83                    1.9062
885.09                    1.9092
885.36                    1.9118
885.62                    1.8700
885.89                    1.8723
886.15                    1.8750
886.42                    1.9880
886.68                    1.9909
886.95                    1.9938
887.21                    1.8859
887.48                    1.8887
887.74                    1.8915
888.01                    1.8942
888.27                    4.4698
888.54                    4.4774
888.81                    4.4851
889.07                    1.9055
889.34                    1.9083
889.60                    1.9111
889.87                    1.9140
890.13                    1.9198
890.40                    1.9226
890.66                    1.9255
890.93                    1.9255
891.19                    1.9284
891.46                    1.9313
891.72                    2.4516
891.99                    2.4555
892.26                    2.4595
892.52                    1.9430
892.79                    1.9460
893.05                    1.9488
893.32                    1.9516
893.58                    1.9545
893.85                    1.9575
894.11                    3.1083
894.38                    3.1136
894.64                    3.1191
894.91                    1.9926
895.17                    1.9957
895.44                    1.9989
895.70                    1.9923
895.97                    1.9954
896.24                    1.9985
896.50                    1.9881
896.77                    1.9912
897.03                    1.9943
897.30                    2.0425
897.56                    2.0526
897.83                    2.1872
898.09                    2.1527
898.36                    2.1498
898.62                    2.0366
898.89                    2.0325
899.15                    2.0353
899.42                    2.0230
899.68                    2.0263
899.95                    2.0777
900.22                    2.1054
900.48                    2.1089
900.75                    2.0634
901.01                    2.1011
901.28                    2.1101
901.54                    2.1137
901.81                    2.0616
902.07                    2.0597
902.34                    2.0631
902.60                    2.1486
902.87                    2.1523
903.13                    2.1764
903.40                    2.1121
903.66                    2.2087
903.93                    2.1922
904.20                    2.3059
904.46                    2.2252
904.73                    3.1843
904.99                    3.0898
905.26                    3.1291
905.52                    2.1701
905.79                    2.1467
906.05                    2.1095
906.32                    2.1132
906.58                    2.1168
906.85                    2.1205
907.11                    2.1242
907.38                    2.1279
907.64                    2.1316
907.91                    2.1354
908.18                    2.2388
908.44                    2.2427
908.71                    2.3001
908.97                    2.7388
909.24                    2.7694
909.50                    2.7216
909.77                    2.2066
910.03                    2.4779
910.30                    2.4831
910.56                    2.4671
910.83                    2.1764
911.09                    2.2049
911.36                    2.2218
911.62                    2.2258
911.89                    2.2050
912.16                    2.2552
912.42                    2.4324
912.69                    2.4374
912.95                    2.3822
913.22                    2.2579
913.48                    2.2621
913.75                    2.2839
914.01                    2.3120
914.28                    2.3212
914.54                    2.3552
914.81                    2.2915
915.07                    2.3668
915.34                    2.3235
915.60                    2.3987
915.87                    5.7288
916.14                    5.9161
916.40                    5.8656
916.67                    2.4323
916.93                    2.3092
917.20                    2.3122
917.46                    2.3380
917.73                    2.3933
917.99                    2.4322
918.26                    2.5402
918.52                    2.6912
918.79                    2.7512
919.05                    2.6393
919.32                    2.4489
919.59                    2.5279
919.85                    2.6037
920.00                    3.1782
920.50                    3.2047
921.00                    3.1979
921.50                    3.1802
922.00                    3.1788
922.50                    3.1980
923.00                    3.1975
923.50                    3.1812
924.00                    3.1657
924.50                    3.1568
925.00                    3.1536
925.50                    3.1648
926.00                    3.1674
926.50                    3.1671
927.00                    3.1744
927.50                    3.1405
928.00                    3.0764
928.50                    3.0525
929.00                    3.0479
929.50                    3.0037
930.00                    2.9916
930.50                    3.9598
931.00                    5.9038
931.50                    6.4418
932.00                    4.9826
932.50                    5.2659
933.00                    4.0984
933.50                    3.0042
934.00                    3.0245
934.50                    2.5054
935.00                    2.4020
935.50                    2.4089
936.00                    2.3060
936.50                    2.4530
937.00                    3.0253
937.50                    5.5259
938.00                    7.2588
938.50                    5.5344
939.00                    4.6363
939.50                    3.9267
940.00                    3.3799
940.50                    3.6590
941.00                    3.1803
941.50                    3.1092
942.00                    3.8049
942.50                    3.7653
943.00                    2.7828
943.50                    3.6485
944.00                    5.1923
944.50                    4.5183
945.00                    3.5035
945.50                    3.3217
946.00                    3.7808
946.50                    3.3223
947.00                    2.9281
947.50                    4.9644
948.00                    6.8836
948.50                    4.3826
949.00                    2.7865
949.50                    2.6255
950.00                    2.9732
950.50                    3.6706
951.00                    3.4888
951.50                    3.9349
952.00                    5.0984
952.50                    4.5452
953.00                    3.2049
953.50                    2.7828
954.00                    2.7463
954.50                    2.6452
955.00                    3.0752
955.50                    3.4891
956.00                    3.0936
956.50                    3.5915
957.00                    4.3700
957.50                    3.7377
958.00                    2.8207
958.50                    2.7241
959.00                    2.6574
959.50                    2.6358
960.00                    2.7602
960.50                    3.0135
961.00                    3.2421
961.50                    3.1784
962.00                    3.3423
962.50                    3.5253
963.00                    3.1837
963.50                    2.8836
964.00                    2.7945
964.50                    2.7812
965.00                    2.8530
965.50                    2.9976
966.00                    3.0519
966.50                    3.2041
967.00                    3.5469
967.50                    3.5600
968.00                    4.0267
968.50                    4.5982
969.00                    4.1227
969.50                    4.3913
970.00                    5.4298
970.50                    4.7927
971.00                    4.0370
971.50                    4.9322
972.00                    6.0626
972.50                    5.5287
973.00                    3.8007
973.50                    3.5290
974.00                    4.1360
974.50                    3.6265
975.00                    3.0285
975.50                    2.9238
976.00                    2.8811
976.50                    2.9031
977.00                    2.9512
977.50                    2.9681
978.00                    2.9422
978.50                    3.9290
979.00                    9.1197
979.50                   13.2008
980.00                    9.7998
980.50                    5.4729
981.00                    4.3360
981.50                    4.0708
982.00                    3.4978
982.50                    3.1232
983.00                    3.2413
983.50                    3.1248
984.00                    2.9954
984.50                    3.8712
985.00                    4.9675
985.50                    4.1910
986.00                    3.1373
986.50                    3.0754
987.00                    6.4484
987.50                    9.8791
988.00                    6.3508
988.50                    3.0239
989.00                    3.6262
989.50                    4.9249
990.00                    4.8782
990.50                    3.5780
991.00                    4.8664
991.50                    8.5226
992.00                    8.2326
992.50                    4.5892
993.00                    2.9553
993.50                    3.0275
994.00                    4.9005
994.50                    9.4185
995.00                   10.5285
995.50                    8.1736
996.00                    9.6293
996.50                    9.5931
997.00                    5.7210
997.50                    4.0486
998.00                    3.5146
998.50                    2.9753
999.00                    2.9384
999.50                    3.1452
1000.00                   3.6520
1000.50                   3.7804
1001.00                   7.6899
1001.50                  12.5117
1002.00                   8.8548
1002.50                   5.5104
1003.00                   5.5179
1003.50                   3.9736
1004.00                   3.4821
1004.50                   4.0171
1005.00                   3.5713
1005.50                   3.3077
1006.00                   4.1907
1006.50                   4.8220
1007.00                   4.3889
1007.50                   3.7990
1008.00                   5.6420
1008.50                   7.9472
1009.00                   5.4632
1009.50                   3.0494
1010.00                   3.8451
1010.50                   4.8499
1011.00                   4.1160
1011.50                   3.0825
1012.00                   5.0448
1012.50                   8.1991
1013.00                   6.9091
1013.50                   3.9568
1014.00                   3.0427
1014.50                   3.1622
1015.00                   4.2968
1015.50                   5.8090
1016.00                   5.6582
1016.50                   4.6212
1017.00                   8.0055
1017.50                  11.8708
1018.00                   8.1506
1018.50                   6.6891
1019.00                   9.8005
1019.50                   9.0201
1020.00                   6.3845
1020.50                   7.2576
1021.00                  11.4460
1021.50                  13.2440
1022.00                   7.5248
1022.50                   4.9332
1023.00                   7.6176
1023.50                   7.1898
1024.00                   4.2116
1024.50                   2.8402
1025.00                   2.8392
1025.50                   2.8372
1026.00                   2.8368
1026.50                   2.8804
1027.00                   3.1996
1027.50                   3.4439
1028.00                   4.5448
1028.50                  19.2679
1029.00                  33.2184
1029.50                  22.5527
1030.00                  12.1404
1030.50                   7.8103
1031.00                   5.4780
1031.50                   5.1329
1032.00                   3.5396
1032.50                   3.3387
1033.00                   3.7199
1033.50                   3.2898
1034.00                   3.0526
1034.50                   5.8950
1035.00                   8.9547
1035.50                   6.2596
1036.00                   3.2572
1036.50                   2.9010
1037.00                  11.5317
1037.50                  21.5000
1038.00                  12.9913
1038.50                   3.5212
1039.00                   3.0138
1039.50                   6.5437
1040.00                   9.8231
1040.50                   6.1032
1041.00                   2.8106
1041.50                  11.1925
1042.00                  21.7121
1042.50                  14.5136
1043.00                   4.5131
1043.50                   2.8723
1044.00                   2.7879
1044.50                   3.4556
1045.00                   6.2087
1045.50                   7.6300
1046.00                   4.7840
1046.50                   7.3052
1047.00                  14.1852
1047.50                  11.5056
1048.00                   4.7890
1048.50                   2.7528
1049.00                   2.7504
1049.50                   2.7573
1050.00                   2.7688
1050.50                   3.7105
1051.00                   5.2459
1051.50                   4.8011
1052.00                   4.7136
1052.50                   7.4275
1053.00                   7.7292
1053.50                   4.4555
1054.00                   2.7327
1054.50                   2.7310
1055.00                   2.7292
1055.50                   2.7274
1056.00                   2.7256
1056.50                   2.7282
1057.00                   3.2840
1057.50                   3.8943
1058.00                   3.5222
1058.50                   4.1010
1059.00                   4.8843
1059.50                   3.6739
1060.00                   2.7200
1060.50                   2.7169
1061.00                   2.7101
1061.50                   2.7056
1062.00                   2.7036
1062.50                   2.7014
1063.00                   2.6994
1063.50                   2.7296
1064.00                   2.9060
1064.50                   3.0288
1065.00                   3.1488
1065.50                   3.3323
1066.00                   3.0185
1066.50                   2.7006
1067.00                   2.6842
1067.50                   2.6809
1068.00                   2.7577
1068.50                   3.2668
1069.00                   3.9039
1069.50                   4.9051
1070.00                   6.0732
1070.50                   5.7871
1071.00                   7.5097
1071.50                   9.5517
1072.00                   7.4692
1072.50                  10.2092
1073.00                  15.2472
1073.50                  10.8699
1074.00                   6.5759
1074.50                   8.5901
1075.00                  14.2962
1075.50                  17.7016
1076.00                   9.2795
1076.50                   2.7012
1077.00                   5.3574
1077.50                   8.1519
1078.00                   5.4267
1078.50                   2.7254
1079.00                   2.6488
1079.50                   2.6534
1080.00                   2.6503
1080.50                   2.6500
1081.00                   2.6374
1081.50                   2.6249
1082.00                   2.6272
1082.50                   5.3620
1083.00                  27.0215
1083.50                  44.7260
1084.00                  29.9711
1084.50                  17.6151
1085.00                   9.9122
1085.50                   5.6569
1086.00                   7.5970
1086.50                   4.8953
1087.00                   2.7728
1087.50                   3.5359
1088.00                   4.0757
1088.50                   3.2530
1089.00                   3.3336
1089.50                   7.6283
1090.00                  10.7561
1090.50                   6.3787
1091.00                   2.7352
1091.50                   2.5954
1092.00                  13.8515
1092.50                  28.3281
1093.00                  19.6153
1093.50                   5.4680
1094.00                   2.6030
1094.50                   6.9207
1095.00                  12.4960
1095.50                   8.9507
1096.00                   3.5146
1096.50                   2.7020
1097.00                  17.3027
1097.50                  33.0216
1098.00                  18.0592
1098.50                   3.1435
1099.00                   2.5256
1099.50                   2.5006
1100.00                   2.8139
