# sky background 0.3-1.0um
# GREY optical sky - 80%ile conditions (day 11)
# AM=1.5
#
#derived from sky spectrum with constant slope to match assumed photometric background
#increasingly poor model at very bright sky (day14);  patched to near-IR background at 920nm
#
#1 March 2001 : Phil Puxley

#nm         phot/s/nm/arcsec^2/m^2
320.00                    0.0000
349.99                    0.0000
350.17                    2.7874
350.43                    2.7866
350.70                    2.7857
350.96                    2.7849
351.23                    2.7841
351.49                    2.7832
351.76                    2.7824
352.02                    2.7815
352.29                    2.7807
352.55                    2.7799
352.82                    2.7790
353.08                    2.7782
353.35                    2.7773
353.62                    2.7765
353.88                    2.7756
354.15                    2.7748
354.41                    2.7740
354.68                    2.7731
354.94                    2.7723
355.21                    2.7714
355.47                    2.7706
355.74                    2.7698
356.00                    2.7689
356.27                    2.7681
356.53                    2.7672
356.80                    2.7664
357.07                    2.7655
357.33                    2.7647
357.60                    2.7639
357.86                    2.7630
358.13                    2.7622
358.39                    2.7613
358.66                    2.7605
358.92                    2.7597
359.19                    2.7588
359.45                    2.7580
359.72                    2.7571
359.98                    2.7563
360.25                    2.7555
360.51                    2.7546
360.78                    2.7538
361.05                    2.7529
361.31                    2.7521
361.58                    2.7512
361.84                    2.7504
362.11                    2.7496
362.37                    2.7487
362.64                    2.7479
362.90                    2.7470
363.17                    2.7462
363.43                    2.7454
363.70                    2.7445
363.96                    2.7437
364.23                    2.7428
364.49                    2.7420
364.76                    2.7412
365.03                    2.7403
365.29                    2.7395
365.56                    2.7386
365.82                    2.7378
366.09                    2.7369
366.35                    2.7361
366.62                    2.7353
366.88                    2.7344
367.15                    2.7336
367.41                    2.7327
367.68                    2.7319
367.94                    2.7311
368.21                    2.7302
368.47                    2.7294
368.74                    2.7285
369.01                    2.7277
369.27                    2.7269
369.54                    2.7260
369.80                    2.7252
370.07                    2.7243
370.33                    2.7235
370.60                    2.7226
370.86                    2.7218
371.13                    2.7210
371.39                    2.7201
371.66                    2.7193
371.92                    2.7184
372.19                    2.7176
372.45                    2.7168
372.72                    2.7159
372.99                    2.7151
373.25                    2.7142
373.52                    2.7134
373.78                    2.7125
374.05                    2.7117
374.31                    2.7109
374.58                    2.7100
374.84                    2.7092
375.11                    2.7083
375.37                    2.7075
375.64                    2.7067
375.90                    2.7058
376.17                    2.7050
376.43                    2.7041
376.70                    2.7033
376.97                    2.7025
377.23                    2.7016
377.50                    2.7008
377.76                    2.6999
378.03                    2.6991
378.29                    2.6982
378.56                    2.6974
378.82                    2.6966
379.09                    2.6957
379.35                    2.6949
379.62                    2.6940
379.88                    2.6932
380.15                    2.6924
380.41                    2.6915
380.68                    2.6907
380.95                    2.6898
381.21                    2.6890
381.48                    2.6882
381.74                    2.6873
382.01                    2.6865
382.27                    2.6856
382.54                    2.6848
382.80                    2.6839
383.07                    2.6831
383.33                    2.6823
383.60                    2.6814
383.86                    2.6806
384.13                    2.6797
384.40                    2.6789
384.66                    2.6781
384.93                    2.6772
385.19                    2.6764
385.46                    2.6755
385.72                    2.6747
385.99                    2.6739
386.25                    2.6730
386.52                    2.6722
386.78                    2.6714
387.05                    2.6706
387.31                    2.6697
387.58                    2.6689
387.84                    2.6681
388.11                    2.6672
388.38                    2.6664
388.64                    2.6656
388.91                    2.6648
389.17                    2.6640
389.44                    2.6631
389.70                    2.6623
389.97                    2.6615
390.23                    2.6607
390.50                    2.6599
390.76                    2.6591
391.03                    2.6583
391.29                    2.6575
391.56                    2.6567
391.82                    2.6559
392.09                    2.6551
392.36                    2.6543
392.62                    2.6535
392.89                    2.6527
393.15                    2.6520
393.42                    2.6512
393.68                    2.6504
393.95                    2.6496
394.21                    2.6488
394.48                    2.6480
394.74                    2.6472
395.01                    2.6464
395.27                    2.6456
395.54                    2.6448
395.80                    2.6440
396.07                    2.6432
396.34                    2.6424
396.60                    2.6416
396.87                    2.6408
397.13                    2.6400
397.40                    2.6392
397.66                    2.6384
397.93                    2.6376
398.19                    2.6367
398.46                    2.6359
398.72                    2.6351
398.99                    2.6343
399.25                    2.6335
399.52                    2.6327
399.78                    2.6319
400.05                    2.6310
400.32                    2.6303
400.58                    2.6295
400.85                    2.6287
401.11                    2.6279
401.38                    2.6271
401.64                    2.6262
401.91                    2.6254
402.17                    2.6246
402.44                    2.6238
402.70                    2.6230
402.97                    2.6222
403.23                    2.6214
403.50                    2.6206
403.76                    2.6198
404.03                    2.6190
404.30                    2.6182
404.56                    2.6173
404.83                    2.6165
405.09                    2.6157
405.36                    2.6149
405.62                    2.6141
405.89                    2.6133
406.15                    2.6125
406.42                    2.6117
406.68                    2.6109
406.95                    2.6101
407.21                    2.6093
407.48                    2.6085
407.74                    2.6078
408.01                    2.6070
408.28                    2.6062
408.54                    2.6054
408.81                    2.6046
409.07                    2.6038
409.34                    2.6030
409.60                    2.6022
409.87                    2.6015
410.13                    2.6007
410.40                    2.5999
410.66                    2.5992
410.93                    2.5984
411.19                    2.5976
411.46                    2.5969
411.73                    2.5961
411.99                    2.5954
412.26                    2.5946
412.52                    2.5938
412.79                    2.5931
413.05                    2.5923
413.32                    2.5916
413.58                    2.5908
413.85                    2.5900
414.11                    2.5893
414.38                    2.5885
414.64                    2.5877
414.91                    2.5870
415.17                    2.5862
415.44                    2.5854
415.71                    2.5846
415.97                    2.5839
416.24                    2.5831
416.50                    2.5823
416.77                    2.5816
417.03                    2.5808
417.30                    2.5800
417.56                    2.5792
417.83                    2.5784
418.09                    2.5777
418.36                    2.5769
418.62                    2.5761
418.89                    2.5753
419.15                    2.5745
419.42                    2.5737
419.69                    2.5730
419.95                    2.5722
420.22                    2.5714
420.48                    2.5705
420.75                    2.5697
421.01                    2.5689
421.28                    2.5681
421.54                    2.5673
421.81                    2.5665
422.07                    2.5657
422.34                    2.5649
422.60                    2.5641
422.87                    2.5633
423.13                    2.5625
423.40                    2.5617
423.67                    2.5609
423.93                    2.5600
424.20                    2.5592
424.46                    2.5584
424.73                    2.5576
424.99                    2.5568
425.26                    2.5560
425.52                    2.5552
425.79                    2.5544
426.05                    2.5536
426.32                    2.5528
426.58                    2.5520
426.85                    2.5512
427.11                    2.5504
427.38                    2.5496
427.65                    2.5488
427.91                    2.5480
428.18                    2.5472
428.44                    2.5464
428.71                    2.5456
428.97                    2.5448
429.24                    2.5440
429.50                    2.5432
429.77                    2.5424
430.03                    2.5416
430.30                    2.5408
430.56                    2.5401
430.83                    2.5393
431.09                    2.5385
431.36                    2.5377
431.63                    2.5369
431.89                    2.5361
432.16                    2.5354
432.42                    2.5346
432.69                    2.5338
432.95                    2.5330
433.22                    2.5322
433.48                    2.5314
433.75                    2.5307
434.01                    2.5299
434.28                    2.5291
434.54                    2.5283
434.81                    2.5275
435.07                    2.5268
435.34                    2.5260
435.61                    2.5252
435.87                    2.5244
436.14                    2.5237
436.40                    2.5229
436.67                    2.5221
436.93                    2.5214
437.20                    2.5206
437.46                    2.5198
437.73                    2.5191
437.99                    2.5183
438.26                    2.5175
438.52                    2.5168
438.79                    2.5160
439.05                    2.5152
439.32                    2.5145
439.59                    2.5137
439.85                    2.5130
440.12                    2.5122
440.38                    2.5115
440.65                    2.5108
440.91                    2.5100
441.18                    2.5093
441.44                    2.5086
441.71                    2.5078
441.97                    2.5071
442.24                    2.5064
442.50                    2.5057
442.77                    2.5049
443.04                    2.5042
443.30                    2.5034
443.57                    2.5027
443.83                    2.5020
444.10                    2.5012
444.36                    2.5005
444.63                    2.4998
444.89                    2.4990
445.16                    2.4983
445.42                    2.4975
445.69                    2.4968
445.95                    2.4961
446.22                    2.4953
446.48                    2.4946
446.75                    2.4938
447.02                    2.4931
447.28                    2.4923
447.55                    2.4916
447.81                    2.4908
448.08                    2.4901
448.34                    2.4893
448.61                    2.4886
448.87                    2.4878
449.14                    2.4871
449.40                    2.4863
449.67                    2.4856
449.93                    2.4848
450.20                    2.4840
450.46                    2.4832
450.73                    2.4825
451.00                    2.4817
451.26                    2.4809
451.53                    2.4801
451.79                    2.4794
452.06                    2.4786
452.32                    2.4778
452.59                    2.4770
452.85                    2.4762
453.12                    2.4755
453.38                    2.4747
453.65                    2.4739
453.91                    2.4731
454.18                    2.4724
454.44                    2.4716
454.71                    2.4708
454.98                    2.4700
455.24                    2.4693
455.51                    2.4685
455.77                    2.4677
456.04                    2.4669
456.30                    2.4662
456.57                    2.4654
456.83                    2.4646
457.10                    2.4638
457.36                    2.4631
457.63                    2.4623
457.89                    2.4615
458.16                    2.4608
458.42                    2.4600
458.69                    2.4592
458.96                    2.4585
459.22                    2.4577
459.49                    2.4569
459.75                    2.4562
460.02                    2.4554
460.28                    2.4546
460.55                    2.4539
460.81                    2.4531
461.08                    2.4524
461.34                    2.4516
461.61                    2.4509
461.87                    2.4501
462.14                    2.4493
462.40                    2.4486
462.67                    2.4478
462.94                    2.4471
463.20                    2.4463
463.47                    2.4456
463.73                    2.4448
464.00                    2.4441
464.26                    2.4433
464.53                    2.4426
464.79                    2.4418
465.06                    2.4411
465.32                    2.4403
465.59                    2.4396
465.85                    2.4388
466.12                    2.4381
466.38                    2.4373
466.65                    2.4366
466.92                    2.4359
467.18                    2.4351
467.45                    2.4344
467.71                    2.4337
467.98                    2.4329
468.24                    2.4322
468.51                    2.4315
468.77                    2.4307
469.04                    2.4300
469.30                    2.4293
469.57                    2.4286
469.83                    2.4278
470.10                    2.4271
470.37                    2.4264
470.63                    2.4258
470.90                    2.4251
471.16                    2.4244
471.43                    2.4237
471.69                    2.4230
471.96                    2.4223
472.22                    2.4216
472.49                    2.4209
472.75                    2.4202
473.02                    2.4195
473.28                    2.4188
473.55                    2.4181
473.81                    2.4174
474.08                    2.4167
474.35                    2.4160
474.61                    2.4153
474.88                    2.4146
475.14                    2.4139
475.41                    2.4132
475.67                    2.4124
475.94                    2.4117
476.20                    2.4110
476.47                    2.4103
476.73                    2.4096
477.00                    2.4089
477.26                    2.4081
477.53                    2.4074
477.79                    2.4067
478.06                    2.4060
478.33                    2.4052
478.59                    2.4045
478.86                    2.4037
479.12                    2.4030
479.39                    2.4023
479.65                    2.4015
479.92                    2.4008
480.18                    2.4000
480.45                    2.3992
480.71                    2.3984
480.98                    2.3976
481.24                    2.3969
481.51                    2.3961
481.77                    2.3953
482.04                    2.3945
482.31                    2.3937
482.57                    2.3929
482.84                    2.3922
483.10                    2.3914
483.37                    2.3906
483.63                    2.3898
483.90                    2.3890
484.16                    2.3882
484.43                    2.3875
484.69                    2.3867
484.96                    2.3859
485.22                    2.3851
485.49                    2.3843
485.75                    2.3836
486.02                    2.3828
486.29                    2.3820
486.55                    2.3812
486.82                    2.3805
487.08                    2.3797
487.35                    2.3789
487.61                    2.3781
487.88                    2.3774
488.14                    2.3766
488.41                    2.3758
488.67                    2.3750
488.94                    2.3743
489.20                    2.3735
489.47                    2.3727
489.73                    2.3720
490.00                    2.3712
490.27                    2.3705
490.53                    2.3697
490.80                    2.3690
491.06                    2.3682
491.33                    2.3675
491.59                    2.3667
491.86                    2.3660
492.12                    2.3652
492.39                    2.3645
492.65                    2.3637
492.92                    2.3630
493.18                    2.3622
493.45                    2.3615
493.71                    2.3607
493.98                    2.3600
494.25                    2.3592
494.51                    2.3585
494.78                    2.3577
495.04                    2.3570
495.31                    2.3562
495.57                    2.3555
495.84                    2.3547
496.10                    2.3540
496.37                    2.3533
496.63                    2.3525
496.90                    2.3518
497.16                    2.3510
497.43                    2.3503
497.70                    2.3495
497.96                    2.3488
498.23                    2.3480
498.49                    2.3473
498.76                    2.3466
499.02                    2.3458
499.29                    2.3451
499.55                    2.3443
499.82                    2.3436
500.08                    2.3429
500.35                    2.3421
500.61                    2.3414
500.88                    2.3407
501.14                    2.3399
501.41                    2.3392
501.68                    2.3385
501.94                    2.3377
502.21                    2.3370
502.47                    2.3363
502.74                    2.3355
503.00                    2.3348
503.27                    2.3341
503.53                    2.3333
503.80                    2.3326
504.06                    2.3319
504.33                    2.3311
504.59                    2.3304
504.86                    2.3297
505.12                    2.3289
505.39                    2.3282
505.66                    2.3275
505.92                    2.3268
506.19                    2.3260
506.45                    2.3253
506.72                    2.3246
506.98                    2.3238
507.25                    2.3231
507.51                    2.3224
507.78                    2.3216
508.04                    2.3209
508.31                    2.3202
508.57                    2.3194
508.84                    2.3187
509.10                    2.3180
509.37                    2.3172
509.64                    2.3165
509.90                    2.3158
510.17                    2.3151
510.43                    2.3144
510.70                    2.3136
510.96                    2.3135
511.23                    2.3098
511.49                    2.3130
511.76                    2.3144
512.02                    2.3130
512.29                    2.3016
512.55                    2.2882
512.82                    2.2879
513.08                    2.2993
513.35                    2.3058
513.62                    2.3015
513.88                    2.2933
514.15                    2.2946
514.41                    2.2950
514.68                    2.2966
514.94                    2.2918
515.21                    2.2890
515.47                    2.2827
515.74                    2.2794
516.00                    2.2804
516.27                    2.2727
516.53                    2.2662
516.80                    2.2611
517.06                    2.2744
517.33                    2.2799
517.60                    2.2884
517.86                    2.2752
518.13                    2.2802
518.39                    2.2806
518.66                    2.2968
518.92                    2.2904
519.19                    2.3009
519.45                    2.4076
519.72                    2.5349
519.98                    2.5712
520.25                    2.4717
520.51                    2.3469
520.78                    2.2974
521.04                    2.2800
521.31                    2.2769
521.58                    2.2782
521.84                    2.2843
522.11                    2.2959
522.37                    2.2821
522.64                    2.2687
522.90                    2.2589
523.17                    2.2654
523.43                    2.2710
523.70                    2.2755
523.96                    2.2767
524.23                    2.2731
524.49                    2.2669
524.76                    2.2611
525.03                    2.2688
525.29                    2.2722
525.56                    2.2767
525.82                    2.2629
526.09                    2.2468
526.35                    2.2365
526.62                    2.2360
526.88                    2.2456
527.15                    2.2622
527.41                    2.2759
527.68                    2.2792
527.94                    2.2837
528.21                    2.2700
528.47                    2.2562
528.74                    2.2400
529.01                    2.2455
529.27                    2.2540
529.54                    2.2609
529.80                    2.2621
530.07                    2.2618
530.33                    2.2563
530.60                    2.2548
530.86                    2.2703
531.13                    2.2722
531.39                    2.2702
531.66                    2.2512
531.92                    2.2470
532.19                    2.2433
532.45                    2.2513
532.72                    2.2670
532.99                    2.2870
533.25                    2.2776
533.52                    2.2591
533.78                    2.2395
534.05                    2.2393
534.31                    2.2443
534.58                    2.2469
534.84                    2.2424
535.11                    2.2348
535.37                    2.2331
535.64                    2.2399
535.90                    2.2445
536.17                    2.2425
536.43                    2.2365
536.70                    2.2339
536.97                    2.2312
537.23                    2.2387
537.50                    2.2347
537.76                    2.2282
538.03                    2.2133
538.29                    2.2103
538.56                    2.2126
538.82                    2.2245
539.09                    2.2206
539.35                    2.2189
539.62                    2.2115
539.88                    2.2144
540.15                    2.2164
540.41                    2.2141
540.68                    2.2222
540.95                    2.2164
541.21                    2.2244
541.48                    2.2131
541.74                    2.2193
542.01                    2.2060
542.27                    2.2031
542.54                    2.2005
542.80                    2.2053
543.07                    2.2157
543.33                    2.2238
543.60                    2.2228
543.86                    2.2235
544.13                    2.2071
544.39                    2.2117
544.66                    2.2064
544.93                    2.2186
545.19                    2.2168
545.46                    2.2144
545.72                    2.2114
545.99                    2.2148
546.25                    2.2202
546.52                    2.2227
546.78                    2.2156
547.05                    2.1992
547.31                    2.1851
547.58                    2.1854
547.84                    2.1935
548.11                    2.1930
548.37                    2.1983
548.64                    2.2033
548.91                    2.2205
549.17                    2.2162
549.44                    2.2229
549.70                    2.2185
549.97                    2.2213
550.23                    2.2149
550.50                    2.2151
550.76                    2.2140
551.03                    2.2112
551.29                    2.2069
551.56                    2.2048
551.82                    2.2028
552.09                    2.1954
552.36                    2.1836
552.62                    2.1788
552.89                    2.1821
553.15                    2.2009
553.42                    2.2044
553.68                    2.2134
553.95                    2.2170
554.21                    2.2374
554.48                    2.2413
554.74                    2.2345
555.01                    2.2216
555.27                    2.2141
555.54                    2.2071
555.80                    2.2106
556.07                    2.2232
556.34                    2.2337
556.60                    2.2340
556.87                    2.2458
557.13                    4.2081
557.40                    6.9449
557.66                    8.8413
557.93                    7.3354
558.19                    4.5958
558.46                    2.6744
558.72                    2.2209
558.99                    2.2142
559.25                    2.2088
559.52                    2.1972
559.78                    2.1965
560.05                    2.2129
560.32                    2.2223
560.58                    2.2272
560.85                    2.2032
561.11                    2.1765
561.38                    2.1758
561.64                    2.1951
561.91                    2.2274
562.17                    2.2381
562.44                    2.2337
562.70                    2.2076
562.97                    2.1841
563.23                    2.1678
563.50                    2.1738
563.76                    2.1816
564.03                    2.1859
564.30                    2.1944
564.56                    2.2054
564.83                    2.2028
565.09                    2.1852
565.36                    2.1648
565.62                    2.1636
565.89                    2.1698
566.15                    2.1792
566.42                    2.1916
566.68                    2.2003
566.95                    2.1940
567.21                    2.1866
567.48                    2.1811
567.74                    2.1889
568.01                    2.1773
568.28                    2.1709
568.54                    2.1550
568.81                    2.1657
569.07                    2.1796
569.34                    2.1948
569.60                    2.2062
569.87                    2.1939
570.13                    2.1922
570.40                    2.1740
570.66                    2.1773
570.93                    2.1661
571.19                    2.1676
571.46                    2.1706
571.72                    2.1871
571.99                    2.1951
572.26                    2.1977
572.52                    2.1838
572.79                    2.1813
573.05                    2.1761
573.32                    2.1769
573.58                    2.1720
573.85                    2.1658
574.11                    2.1719
574.38                    2.1745
574.64                    2.1769
574.91                    2.1628
575.17                    2.1570
575.44                    2.1507
575.70                    2.1609
575.97                    2.1513
576.24                    2.1524
576.50                    2.1514
576.77                    2.1620
577.03                    2.1633
577.30                    2.1583
577.56                    2.1530
577.83                    2.1525
578.09                    2.1488
578.36                    2.1484
578.62                    2.1382
578.89                    2.1361
579.15                    2.1374
579.42                    2.1390
579.68                    2.1460
579.95                    2.1483
580.22                    2.1627
580.48                    2.1630
580.75                    2.1552
581.01                    2.1431
581.28                    2.1434
581.54                    2.1494
581.81                    2.1661
582.07                    2.1767
582.34                    2.1795
582.60                    2.1642
582.87                    2.1622
583.13                    2.1608
583.40                    2.1601
583.67                    2.1580
583.93                    2.1720
584.20                    2.2572
584.46                    2.2484
584.73                    2.2367
584.99                    2.1521
585.26                    2.1590
585.52                    2.1480
585.79                    2.1547
586.05                    2.1901
586.32                    2.2707
586.58                    2.3143
586.85                    2.3052
587.11                    2.2474
587.38                    2.2257
587.65                    2.2085
587.91                    2.2066
588.18                    2.2189
588.44                    2.6959
588.71                    3.2184
588.97                    3.6392
589.24                    3.4563
589.50                    3.1104
589.77                    2.7013
590.03                    2.4188
590.30                    2.2572
590.56                    2.2366
590.83                    2.2474
591.09                    2.2797
591.36                    2.3018
591.63                    2.2942
591.89                    2.2668
592.16                    2.2425
592.42                    2.2320
592.69                    2.2474
592.95                    2.2878
593.22                    2.3288
593.48                    2.2875
593.75                    2.2194
594.01                    2.1712
594.28                    2.1900
594.54                    2.2055
594.81                    2.2406
595.07                    2.2701
595.34                    2.2717
595.61                    2.2306
595.87                    2.1756
596.14                    2.1566
596.40                    2.1557
596.67                    2.1806
596.93                    2.2050
597.20                    2.2288
597.46                    2.2476
597.73                    2.2397
597.99                    2.2097
598.26                    2.1683
598.52                    2.1578
598.79                    2.1703
599.05                    2.1657
599.32                    2.1558
599.59                    2.1504
599.85                    2.1569
600.12                    2.1725
600.38                    2.1633
600.65                    2.1543
600.91                    2.1309
601.18                    2.1192
601.44                    2.1072
601.71                    2.1002
601.97                    2.0933
602.24                    2.0905
602.50                    2.0998
602.77                    2.1108
603.03                    2.1148
603.30                    2.1083
603.57                    2.1000
603.83                    2.0956
604.10                    2.0941
604.36                    2.0931
604.63                    2.0862
604.89                    2.0744
605.16                    2.0617
605.42                    2.0536
605.69                    2.0540
605.95                    2.0598
606.22                    2.0699
606.48                    2.0739
606.75                    2.0648
607.01                    2.0617
607.28                    2.0537
607.55                    2.0620
607.81                    2.0514
608.08                    2.0538
608.34                    2.0470
608.61                    2.0472
608.87                    2.0471
609.14                    2.0466
609.40                    2.0555
609.67                    2.0576
609.93                    2.0587
610.20                    2.0536
610.46                    2.0558
610.73                    2.0533
611.00                    2.0505
611.26                    2.0369
611.53                    2.0352
611.79                    2.0230
612.06                    2.0192
612.32                    2.0217
612.59                    2.0258
612.85                    2.0272
613.12                    2.0164
613.38                    2.0427
613.65                    2.0682
613.91                    2.0933
614.18                    2.0781
614.44                    2.0680
614.71                    2.0444
614.98                    2.0388
615.24                    2.0610
615.51                    2.1016
615.77                    2.1046
616.04                    2.0635
616.30                    2.0385
616.57                    2.0593
616.83                    2.0907
617.10                    2.3920
617.36                    2.3811
617.63                    2.3587
617.89                    2.0382
618.16                    2.0174
618.42                    2.0036
618.69                    1.9999
618.96                    1.9967
619.22                    2.0031
619.49                    2.0037
619.75                    2.0293
620.02                    2.0558
620.28                    2.0677
620.55                    2.0450
620.81                    2.0229
621.08                    2.0210
621.34                    2.0293
621.61                    2.0533
621.87                    2.0805
622.14                    2.0792
622.40                    2.0448
622.67                    2.0213
622.94                    2.0792
623.20                    2.2366
623.47                    2.3639
623.73                    2.3926
624.00                    2.2902
624.26                    2.1874
624.53                    2.0927
624.79                    2.0453
625.06                    2.0538
625.32                    2.1520
625.59                    2.2652
625.85                    2.2985
626.12                    2.2440
626.38                    2.1710
626.65                    2.1270
626.92                    2.0956
627.18                    2.0705
627.45                    2.0653
627.71                    2.0707
627.98                    2.0832
628.24                    2.1292
628.51                    2.2098
628.77                    2.2402
629.04                    2.2337
629.30                    3.3579
629.57                    8.9667
629.83                   14.3556
630.10                   17.1513
630.36                   11.5904
630.63                    6.2334
630.90                    2.2131
631.16                    2.0988
631.43                    2.0177
631.69                    2.0560
631.96                    2.1166
632.22                    2.1256
632.49                    2.1825
632.75                    2.2139
633.02                    2.2651
633.28                    2.1655
633.55                    2.0577
633.81                    1.9784
634.08                    1.9726
634.34                    2.0106
634.61                    2.0325
634.88                    2.0600
635.14                    2.0978
635.41                    2.1673
635.67                    2.7298
635.94                    4.3313
636.20                    6.0213
636.47                    6.5782
636.73                    4.9148
637.00                    3.1220
637.26                    1.9818
637.53                    1.9917
637.79                    2.0094
638.06                    2.0229
638.33                    2.0373
638.59                    2.0384
638.86                    2.0156
639.12                    1.9754
639.39                    1.9502
639.65                    1.9386
639.92                    1.9453
640.18                    1.9418
640.45                    1.9510
640.71                    1.9436
640.98                    1.9466
641.24                    1.9429
641.51                    1.9529
641.77                    1.9680
642.04                    1.9791
642.31                    1.9706
642.57                    1.9500
642.84                    1.9364
643.10                    1.9320
643.37                    1.9232
643.63                    1.9092
643.90                    1.9033
644.16                    1.9069
644.43                    1.9171
644.69                    1.9271
644.96                    1.9434
645.22                    1.9713
645.49                    1.9804
645.75                    1.9867
646.02                    2.0452
646.29                    2.1338
646.55                    2.2132
646.82                    2.2015
647.08                    2.1250
647.35                    2.0503
647.61                    1.9830
647.88                    1.9699
648.14                    1.9510
648.41                    1.9486
648.67                    1.9304
648.94                    1.9198
649.20                    1.9198
649.47                    1.9247
649.73                    1.9326
650.00                    1.9359
650.27                    1.9621
650.53                    1.9549
650.80                    1.9428
651.06                    1.9133
651.33                    1.9189
651.59                    1.9139
651.86                    1.9085
652.12                    1.9115
652.39                    1.9191
652.65                    1.9209
652.92                    1.9203
653.18                    1.9183
653.45                    1.9244
653.71                    1.9280
653.98                    1.9362
654.25                    1.9378
654.51                    1.9259
654.78                    1.9295
655.04                    1.9854
655.31                    1.9943
655.57                    1.9937
655.84                    1.9360
656.10                    1.9266
656.37                    1.9087
656.63                    1.9750
656.90                    1.9844
657.16                    1.9909
657.43                    1.9526
657.69                    1.9420
657.96                    1.9412
658.23                    1.9072
658.49                    1.9128
658.76                    1.9068
659.02                    1.9035
659.29                    1.9024
659.55                    1.9022
659.82                    1.9020
660.08                    1.9029
660.35                    1.9027
660.61                    1.9043
660.88                    1.8977
661.14                    1.9103
661.41                    1.9083
661.67                    1.9096
661.94                    1.8967
662.21                    1.8981
662.47                    1.9166
662.74                    1.9359
663.00                    1.9343
663.27                    1.9178
663.53                    1.9072
663.80                    1.9068
664.06                    1.9026
664.33                    1.8933
664.59                    1.8947
664.86                    1.8949
665.12                    1.8974
665.39                    1.9003
665.66                    1.9026
665.92                    1.9000
666.19                    1.8951
666.45                    1.8989
666.72                    1.8985
666.98                    1.8983
667.25                    1.8912
667.51                    1.8910
667.78                    1.8927
668.04                    1.8925
668.31                    1.8923
668.57                    1.8902
668.84                    1.8900
669.10                    1.8898
669.37                    1.8898
669.64                    1.8993
669.90                    1.9017
670.17                    1.9013
670.43                    1.9060
670.70                    1.9232
670.96                    1.9510
671.23                    1.9460
671.49                    1.9407
671.76                    1.9279
672.02                    1.9209
672.29                    1.9169
672.55                    1.9053
672.82                    1.9021
673.08                    1.8906
673.35                    1.9174
673.62                    1.9172
673.88                    1.9170
674.15                    1.8871
674.41                    1.8883
674.68                    1.8891
674.94                    1.8889
675.21                    1.8876
675.47                    1.8893
675.74                    1.8879
676.00                    1.8909
676.27                    1.8896
676.53                    1.8892
676.80                    1.8977
677.06                    1.9134
677.33                    1.9133
677.60                    1.9027
677.86                    1.8846
678.13                    1.8842
678.39                    1.8822
678.66                    1.8821
678.92                    1.9025
679.19                    1.9025
679.45                    1.9062
679.72                    1.9046
679.98                    1.9042
680.25                    1.8999
680.51                    1.8804
680.78                    1.8802
681.04                    1.8800
681.31                    1.8797
681.58                    1.8795
681.84                    1.8793
682.11                    1.8791
682.37                    1.8789
682.64                    1.8980
682.90                    1.9028
683.17                    2.2428
683.43                    2.2236
683.70                    2.2185
683.96                    1.8924
684.23                    1.8922
684.49                    1.8920
684.76                    1.8770
685.02                    1.8768
685.29                    1.8766
685.56                    1.8764
685.82                    1.8761
686.09                    2.3781
686.35                    2.3783
686.62                    2.3786
686.88                    1.8859
687.15                    1.8857
687.41                    1.8854
687.68                    1.8745
687.94                    1.8923
688.21                    1.8921
688.47                    1.8930
688.74                    1.8746
689.00                    1.8775
689.27                    1.8763
689.54                    1.8790
689.80                    2.1345
690.07                    2.1348
690.33                    2.1373
690.60                    1.8772
690.86                    1.8770
691.13                    1.8715
691.39                    1.8713
691.66                    1.8833
691.92                    1.8831
692.19                    1.8828
692.45                    1.8703
692.72                    1.8700
692.99                    1.8698
693.25                    1.8780
693.52                    1.8868
693.78                    1.8999
694.05                    1.8929
694.31                    1.8849
694.58                    1.8713
694.84                    1.8835
695.11                    1.8883
695.37                    1.9073
695.64                    1.9221
695.90                    1.9316
696.17                    1.9169
696.43                    1.8905
696.70                    1.9372
696.97                    1.9421
697.23                    1.9499
697.50                    1.8905
697.76                    1.8811
698.03                    1.8699
698.29                    1.8653
698.56                    1.8720
698.82                    1.8741
699.09                    1.8738
699.35                    1.8737
699.62                    1.8753
699.88                    1.8876
700.15                    1.8828
700.41                    1.8783
700.68                    1.8653
700.95                    1.8616
701.21                    1.8613
701.48                    1.8609
701.74                    1.8606
702.01                    1.8603
702.27                    1.8599
702.54                    1.8600
702.80                    1.8630
703.07                    1.8642
703.33                    1.8634
703.60                    1.8641
703.86                    1.9047
704.13                    1.9194
704.39                    1.9151
704.66                    1.8738
704.93                    1.8704
705.19                    1.8698
705.46                    1.8680
705.72                    1.8684
705.99                    1.8807
706.25                    1.8804
706.52                    1.8706
706.78                    1.8820
707.05                    1.9019
707.31                    1.8984
707.58                    1.8834
707.84                    1.8718
708.11                    1.8715
708.37                    1.8615
708.64                    1.8526
708.91                    1.8525
709.17                    1.8522
709.44                    1.8583
709.70                    1.8593
709.97                    1.8590
710.23                    1.8519
710.50                    1.8789
710.76                    1.8890
711.03                    1.8890
711.29                    1.8597
711.56                    1.8489
711.82                    1.8485
712.09                    1.8482
712.35                    1.8478
712.62                    1.8475
712.89                    1.8529
713.15                    1.8526
713.42                    1.8524
713.68                    1.8566
713.95                    1.8563
714.21                    1.8560
714.48                    1.8455
714.74                    1.8452
715.01                    1.8449
715.27                    1.8476
715.54                    1.8563
715.80                    1.8560
716.07                    1.8527
716.33                    1.8479
716.60                    1.8477
716.87                    1.8474
717.13                    1.8426
717.40                    1.8423
717.66                    1.8456
717.93                    1.8453
718.19                    1.8450
718.46                    1.8412
718.72                    1.8409
718.99                    1.8406
719.25                    1.8404
719.52                    1.8401
719.78                    1.8398
720.05                    1.8396
720.32                    1.8394
720.58                    1.8392
720.85                    1.8389
721.11                    1.8387
721.38                    1.8385
721.64                    1.8383
721.91                    1.8381
722.17                    1.8401
722.44                    1.8398
722.70                    1.8419
722.97                    1.8395
723.23                    1.8393
723.50                    1.8368
723.76                    1.9513
724.03                    1.9513
724.30                    2.0479
724.56                    1.9450
724.83                    1.9478
725.09                    1.8506
725.36                    1.8423
725.62                    1.8392
725.89                    1.8390
726.15                    1.8347
726.42                    1.8344
726.68                    1.8424
726.95                    1.8422
727.21                    1.9360
727.48                    1.9277
727.74                    1.9277
728.01                    1.8332
728.28                    1.8394
728.54                    1.8392
728.81                    1.8413
729.07                    1.8366
729.34                    2.0165
729.60                    2.0143
729.87                    2.0125
730.13                    1.8592
730.40                    1.8596
730.66                    1.8595
730.93                    1.8585
731.19                    1.8578
731.46                    1.8853
731.72                    1.8915
731.99                    1.8914
732.26                    1.8634
732.52                    1.8297
732.79                    1.8332
733.05                    1.8329
733.32                    1.8328
733.58                    1.8289
733.85                    3.5706
734.11                    3.5867
734.38                    3.5892
734.64                    1.8470
734.91                    1.8341
735.17                    1.8339
735.44                    1.8432
735.70                    1.8420
735.97                    1.8475
736.24                    1.8325
736.50                    1.8383
736.77                    1.8324
737.03                    1.8520
737.30                    1.8484
737.56                    1.8665
737.83                    1.8508
738.09                    1.8706
738.36                    1.8522
738.62                    1.8484
738.89                    1.8259
739.15                    1.8255
739.42                    1.8247
739.68                    1.8287
739.95                    1.8363
740.22                    1.8363
740.48                    1.8322
740.75                    1.8338
741.01                    1.8704
741.28                    1.8719
741.54                    1.8932
741.81                    1.8557
742.07                    1.8620
742.34                    1.8305
742.60                    1.8538
742.87                    1.8445
743.13                    1.8523
743.40                    1.8284
743.66                    1.8445
743.93                    1.8411
744.20                    1.8435
744.46                    1.8269
744.73                    1.8266
744.99                    1.8374
745.26                    1.8372
745.52                    1.8337
745.79                    1.8337
746.05                    1.8355
746.32                    1.8469
746.58                    1.8444
746.85                    2.0323
747.11                    2.0618
747.38                    2.0509
747.64                    1.9603
747.91                    1.9315
748.18                    1.9524
748.44                    1.8545
748.71                    1.8469
748.97                    1.8250
749.24                    1.8257
749.50                    1.8332
749.77                    1.8515
750.03                    1.8643
750.30                    1.8508
750.56                    1.8494
750.83                    1.9192
751.09                    1.9216
751.36                    1.9575
751.63                    1.8766
751.89                    1.8766
752.16                    2.2039
752.42                    2.2035
752.69                    2.2107
752.95                    1.8565
753.22                    1.8729
753.48                    1.8707
753.75                    1.8979
754.01                    1.8933
754.28                    1.8870
754.54                    1.8320
754.81                    1.8398
755.07                    1.8777
755.34                    1.8859
755.61                    1.8619
755.87                    1.8275
756.14                    1.8375
756.40                    1.8500
756.67                    1.8455
756.93                    2.4775
757.20                    2.5504
757.46                    2.5491
757.73                    1.9007
757.99                    1.8205
758.26                    1.8283
758.52                    1.8242
758.79                    1.8175
759.05                    1.8142
759.32                    1.8141
759.59                    2.0099
759.85                    2.0052
760.12                    2.0052
760.38                    1.8092
760.65                    1.8091
760.91                    1.8091
761.18                    1.8172
761.44                    1.8172
761.71                    1.8286
761.97                    1.8394
762.24                    1.8394
762.50                    1.8296
762.77                    1.8106
763.03                    1.8180
763.30                    1.8163
763.57                    1.8178
763.83                    1.8104
764.10                    1.8104
764.36                    1.8376
764.63                    1.8376
764.89                    1.8377
765.16                    1.8089
765.42                    1.8089
765.69                    1.8089
765.95                    2.0100
766.22                    2.0102
766.48                    2.0103
766.75                    1.8090
767.01                    1.8130
767.28                    1.8131
767.55                    1.8131
767.81                    1.8119
768.08                    1.8119
768.34                    1.8129
768.61                    1.8102
768.87                    1.8346
769.14                    1.8337
769.40                    1.8337
769.67                    1.8453
769.93                    1.8506
770.20                    1.8506
770.46                    1.8451
770.73                    1.8598
770.99                    3.6406
771.26                    3.9790
771.53                    4.3396
771.79                    2.5948
772.06                    2.2447
772.32                    2.2306
772.59                    2.1948
772.85                    2.1836
773.12                    1.8426
773.38                    1.8427
773.65                    1.8356
773.91                    1.8146
774.18                    1.8147
774.44                    1.8183
774.71                    1.8325
774.97                    1.8521
775.24                    1.8487
775.51                    1.8307
775.77                    1.8392
776.04                    1.8393
776.30                    1.8405
776.57                    1.8127
776.83                    1.8128
777.10                    1.8761
777.36                    1.8762
777.63                    1.8764
777.89                    1.8122
778.16                    1.8169
778.42                    1.8469
778.69                    1.8581
778.96                    1.8947
779.22                    1.8684
779.49                    1.8575
779.75                    1.8167
780.02                    1.8301
780.28                    1.8302
780.55                    2.1986
780.81                    2.1818
781.08                    2.1817
781.34                    1.8350
781.61                    1.8841
781.87                    5.7415
782.14                    5.7185
782.40                    5.6676
782.67                    1.8217
782.94                    1.8219
783.20                    1.8220
783.47                    1.8163
783.73                    1.8164
784.00                    1.8166
784.26                    1.8160
784.53                    1.8162
784.79                    1.8221
785.06                    4.6649
785.32                    4.6634
785.59                    4.6564
785.85                    1.8173
786.12                    1.8175
786.38                    1.8177
786.65                    1.8178
786.92                    1.8181
787.18                    1.8183
787.45                    1.8186
787.71                    1.8188
787.98                    1.8190
788.24                    1.8193
788.51                    1.8282
788.77                    1.9171
789.04                    1.9174
789.30                    1.9090
789.57                    1.8207
789.83                    1.8209
790.10                    1.8212
790.36                    1.8215
790.63                    1.8218
790.90                    1.8240
791.16                    1.8243
791.43                    1.8246
791.69                    1.8554
791.96                    1.8558
792.22                    1.8561
792.49                    1.8240
792.75                    1.8493
793.02                    1.8497
793.28                    1.8500
793.55                    1.8253
793.81                    1.8256
794.08                    1.8266
794.34                    1.8640
794.61                    1.8899
794.88                    1.8896
795.14                    1.8580
795.41                    1.8329
795.67                    1.8332
795.94                    1.8284
796.20                    4.4858
796.47                    4.4869
796.73                    4.4881
797.00                    1.8300
797.26                    1.8350
797.53                    1.8355
797.79                    1.8359
798.06                    1.8317
798.32                    1.8321
798.59                    1.8326
798.86                    1.8420
799.12                    1.8680
799.39                    1.8685
799.65                    1.8600
799.92                    1.8361
800.18                    1.8413
800.45                    1.8418
800.71                    1.8409
800.98                    1.8368
801.24                    1.9060
801.51                    1.9066
801.77                    2.0195
802.04                    1.9601
802.30                    3.4879
802.57                    3.4794
802.84                    3.4743
803.10                    1.9466
803.37                    1.8474
803.63                    1.8558
803.90                    1.8515
804.16                    1.8509
804.43                    1.8436
804.69                    1.8831
804.96                    2.1047
805.22                    2.1186
805.49                    2.1006
805.75                    1.9139
806.02                    1.9016
806.29                    1.8940
806.55                    1.8894
806.82                    1.9218
807.08                    1.9105
807.35                    1.9064
807.61                    1.9066
807.88                    1.9480
808.14                    2.0165
808.41                    1.9873
808.67                    1.9473
808.94                    1.8553
809.20                    1.8575
809.47                    1.8730
809.73                    1.8739
810.00                    2.2035
810.27                    2.1892
810.53                    2.2272
810.80                    1.9008
811.06                    1.9170
811.33                    1.8867
811.59                    1.8958
811.86                    1.9035
812.12                    1.9000
812.39                    1.9347
812.65                    1.9204
812.92                    1.9446
813.18                    1.9036
813.45                    1.9053
813.71                    1.9077
813.98                    1.9177
814.25                    1.9192
814.51                    1.9530
814.78                    2.1454
815.04                    2.1427
815.31                    2.1099
815.57                    1.9340
815.84                    1.9289
816.10                    1.9054
816.37                    1.9814
816.63                    2.0299
816.90                    2.0627
817.16                    1.9619
817.43                    1.9169
817.69                    1.9001
817.96                    1.9035
818.23                    1.9052
818.49                    2.0070
818.76                    2.0340
819.02                    2.0646
819.29                    2.0455
819.55                    2.0123
819.82                    1.9802
820.08                    1.8825
820.35                    1.8832
820.61                    1.9030
820.88                    1.9246
821.14                    1.9350
821.41                    1.9192
821.67                    1.9060
821.94                    1.9240
822.21                    1.9279
822.47                    1.9335
822.74                    1.9336
823.00                    1.9298
823.27                    1.9401
823.53                    1.9156
823.80                    1.9147
824.06                    1.8925
824.33                    1.9399
824.59                    1.9430
824.86                    1.9686
825.12                    1.9210
825.39                    1.9454
825.65                    1.9678
825.92                    2.0221
826.19                    2.0755
826.45                    2.0448
826.72                    1.9920
826.98                    1.9554
827.25                    1.9409
827.51                    2.1507
827.78                    2.1101
828.04                    2.1111
828.31                    1.9121
828.57                    4.8340
828.84                    4.9002
829.10                    4.9109
829.37                    2.6157
829.63                    4.0870
829.90                    4.1069
830.17                    3.4740
830.43                    1.9772
830.70                    1.9472
830.96                    1.9481
831.23                    1.9334
831.49                    1.9921
831.76                    1.9931
832.02                    1.9719
832.29                    1.9146
832.55                    1.9154
832.82                    1.9163
833.08                    1.9172
833.35                    1.9181
833.62                    1.9502
833.88                    2.0087
834.15                    2.8763
834.41                    2.8615
834.68                    2.8977
834.94                    2.0304
835.21                    2.0309
835.47                    1.9396
835.74                    1.9496
836.00                    1.9365
836.27                    2.0014
836.53                    1.9935
836.80                    1.9947
837.06                    1.9553
837.33                    1.9564
837.60                    1.9585
837.86                    1.9358
838.13                    2.0258
838.39                    2.0294
838.66                    2.0306
838.92                    1.9424
839.19                    1.9426
839.45                    1.9670
839.72                    2.0155
839.98                    2.0145
840.25                    1.9922
840.51                    2.0977
840.78                    2.1598
841.04                    2.1630
841.31                    2.0812
841.58                    2.0334
841.84                    2.0629
842.11                    2.0596
842.37                    2.1128
842.64                    2.1914
842.90                    2.1400
843.17                    2.1638
843.43                    2.0820
843.70                    2.0793
843.96                    1.9976
844.23                    1.9747
844.49                    1.9697
844.76                    1.9678
845.02                    1.9970
845.29                    1.9974
845.56                    1.9988
845.82                    1.9723
846.09                    1.9737
846.35                    1.9751
846.62                    2.0119
846.88                    2.0144
847.15                    2.0158
847.41                    1.9816
847.68                    1.9821
847.94                    1.9835
848.21                    1.9850
848.47                    1.9864
848.74                    1.9878
849.00                    1.9977
849.27                    1.9992
849.54                    2.0606
849.80                    2.0538
850.07                    2.0731
850.33                    2.0417
850.60                    2.0460
850.86                    2.0299
851.13                    2.0525
851.39                    2.0533
851.66                    2.0580
851.92                    2.0451
852.19                    2.0849
852.45                    2.0835
852.72                    2.0510
852.98                    2.0123
853.25                    2.0139
853.52                    2.0155
853.78                    2.0171
854.05                    2.0187
854.31                    2.0203
854.58                    2.4534
854.84                    2.4554
855.11                    2.4574
855.37                    2.0266
855.64                    2.0282
855.90                    2.0299
856.17                    2.0316
856.43                    2.0333
856.70                    2.0349
856.96                    2.0366
857.23                    2.0383
857.50                    2.0400
857.76                    2.0418
858.03                    2.0435
858.29                    2.0452
858.56                    2.2321
858.82                    2.2341
859.09                    2.2361
859.35                    2.0921
859.62                    2.0939
859.88                    2.0957
860.15                    2.0575
860.41                    2.0594
860.68                    2.0612
860.95                    2.0630
861.21                    2.0648
861.48                    2.0666
861.74                    2.0788
862.01                    2.4895
862.27                    2.4921
862.54                    3.3502
862.80                    2.9431
863.07                    3.1851
863.33                    2.3184
863.60                    2.3206
863.86                    2.0832
864.13                    2.0851
864.39                    2.3994
864.66                    2.4903
864.93                    2.4926
865.19                    2.5089
865.46                    2.4223
865.72                    2.4245
865.99                    2.0985
866.25                    2.8754
866.52                    2.8782
866.78                    3.8648
867.05                    3.0914
867.31                    3.8105
867.58                    2.8393
867.84                    3.0950
868.11                    2.3796
868.37                    2.3701
868.64                    2.1186
868.91                    2.2188
869.17                    2.2210
869.44                    2.2233
869.70                    2.1329
869.97                    2.1349
870.23                    2.1368
870.50                    2.1351
870.76                    2.1372
871.03                    2.1393
871.29                    2.1392
871.56                    2.1413
871.82                    2.1434
872.09                    2.1456
872.35                    2.1478
872.62                    2.1500
872.89                    2.1522
873.15                    2.1544
873.42                    2.1566
873.68                    2.1588
873.95                    2.1610
874.21                    2.2310
874.48                    2.2333
874.74                    2.2821
875.01                    2.2202
875.27                    2.2226
875.54                    2.2794
875.80                    2.7977
876.07                    2.8284
876.33                    4.4222
876.60                    3.9993
876.87                    3.9739
877.13                    2.2830
877.40                    2.1928
877.66                    2.1953
877.93                    2.1975
878.19                    2.2020
878.46                    2.2349
878.72                    2.2373
878.99                    2.2353
879.25                    2.2068
879.52                    2.2092
879.78                    2.2116
880.05                    2.2139
880.31                    2.2165
880.58                    2.2190
880.85                    2.2214
881.11                    2.2239
881.38                    2.2264
881.64                    2.2288
881.91                    2.2313
882.17                    2.2652
882.44                   15.1727
882.70                   15.2034
882.97                   15.2087
883.23                    2.2613
883.50                    2.2873
883.76                    2.2779
884.03                    2.2806
884.29                    2.2542
884.56                    2.2567
884.83                    2.3036
885.09                    2.3065
885.36                    2.3090
885.62                    2.2672
885.89                    2.2694
886.15                    2.2720
886.42                    2.3849
886.68                    2.3878
886.95                    2.3906
887.21                    2.2827
887.48                    2.2854
887.74                    2.2881
888.01                    2.2907
888.27                    4.8663
888.54                    4.8738
888.81                    4.8814
889.07                    2.3018
889.34                    2.3045
889.60                    2.3073
889.87                    2.3101
890.13                    2.3158
890.40                    2.3186
890.66                    2.3214
890.93                    2.3213
891.19                    2.3242
891.46                    2.3270
891.72                    2.8472
891.99                    2.8511
892.26                    2.8550
892.52                    2.3385
892.79                    2.3414
893.05                    2.3441
893.32                    2.3469
893.58                    2.3497
893.85                    2.3526
894.11                    3.5033
894.38                    3.5086
894.64                    3.5140
894.91                    2.3875
895.17                    2.3905
895.44                    2.3936
895.70                    2.3870
895.97                    2.3900
896.24                    2.3931
896.50                    2.3825
896.77                    2.3856
897.03                    2.3887
897.30                    2.4368
897.56                    2.4468
897.83                    2.5813
898.09                    2.5468
898.36                    2.5438
898.62                    2.4305
898.89                    2.4263
899.15                    2.4291
899.42                    2.4168
899.68                    2.4199
899.95                    2.4713
900.22                    2.4989
900.48                    2.5024
900.75                    2.4568
901.01                    2.4944
901.28                    2.5033
901.54                    2.5069
901.81                    2.4548
902.07                    2.4528
902.34                    2.4562
902.60                    2.5415
902.87                    2.5452
903.13                    2.5692
903.40                    2.5049
903.66                    2.6014
903.93                    2.5848
904.20                    2.6985
904.46                    2.6177
904.73                    3.5767
904.99                    3.4822
905.26                    3.5214
905.52                    2.5623
905.79                    2.5389
906.05                    2.5017
906.32                    2.5052
906.58                    2.5088
906.85                    2.5124
907.11                    2.5160
907.38                    2.5197
907.64                    2.5233
907.91                    2.5270
908.18                    2.6304
908.44                    2.6343
908.71                    2.6915
908.97                    3.1302
909.24                    3.1607
909.50                    3.1128
909.77                    2.5978
910.03                    2.8690
910.30                    2.8742
910.56                    2.8581
910.83                    2.5674
911.09                    2.5958
911.36                    2.6126
911.62                    2.6166
911.89                    2.5956
912.16                    2.6459
912.42                    2.8230
912.69                    2.8279
912.95                    2.7726
913.22                    2.6483
913.48                    2.6524
913.75                    2.6741
914.01                    2.7022
914.28                    2.7113
914.54                    2.7452
914.81                    2.6814
915.07                    2.7567
915.34                    2.7133
915.60                    2.7884
915.87                    6.1185
916.14                    6.3057
916.40                    6.2551
916.67                    2.8218
916.93                    2.6986
917.20                    2.7016
917.46                    2.7273
917.73                    2.7825
917.99                    2.8214
918.26                    2.9293
918.52                    3.0802
918.79                    3.1402
919.05                    3.0282
919.32                    2.8378
919.59                    2.9167
919.85                    2.9925
920.00                    3.1782
920.50                    3.2047
921.00                    3.1981
921.50                    3.1822
922.00                    3.1836
922.50                    3.2041
923.00                    3.2018
923.50                    3.1826
924.00                    3.1657
924.50                    3.1568
925.00                    3.1536
925.50                    3.1648
926.00                    3.1674
926.50                    3.1671
927.00                    3.1744
927.50                    3.1405
928.00                    3.0764
928.50                    3.0528
929.00                    3.0489
929.50                    3.0048
930.00                    3.0237
930.50                    4.4609
931.00                    7.2740
931.50                    8.2236
932.00                    5.9619
932.50                    6.4542
933.00                    4.7831
933.50                    3.2254
934.00                    3.3143
934.50                    2.6214
935.00                    2.4109
935.50                    2.4099
936.00                    2.3062
936.50                    2.4532
937.00                    3.2870
937.50                    6.8517
938.00                    9.3415
938.50                    6.8438
939.00                    5.4904
939.50                    4.4183
940.00                    3.6010
940.50                    4.0321
941.00                    3.3512
941.50                    3.2576
942.00                    4.2708
942.50                    4.2804
943.00                    2.9056
943.50                    4.1569
944.00                    6.3912
944.50                    5.3544
945.00                    3.9006
945.50                    3.6208
946.00                    4.3359
946.50                    3.6489
947.00                    3.0309
947.50                    5.9893
948.00                    8.8340
948.50                    5.1222
949.00                    2.7915
949.50                    2.6282
950.00                    3.2251
950.50                    4.1675
951.00                    3.8113
951.50                    4.4713
952.00                    6.1710
952.50                    5.4206
953.00                    3.4414
953.50                    2.7828
954.00                    2.7463
954.50                    2.6474
955.00                    3.2635
955.50                    3.8506
956.00                    3.2801
956.50                    4.0210
957.00                    5.1233
957.50                    4.1816
958.00                    2.8300
958.50                    2.7241
959.00                    2.6574
959.50                    2.6358
960.00                    2.7610
960.50                    3.1082
961.00                    3.4282
961.50                    3.3216
962.00                    3.5872
962.50                    3.8679
963.00                    3.3401
963.50                    2.8836
964.00                    2.7945
964.50                    2.7813
965.00                    2.8595
965.50                    3.0343
966.00                    3.1271
966.50                    3.3728
967.00                    3.8697
967.50                    3.8573
968.00                    4.5495
968.50                    5.3818
969.00                    4.6758
969.50                    5.0704
970.00                    6.6331
970.50                    5.6742
971.00                    4.5520
971.50                    5.8947
972.00                    7.5693
972.50                    6.7768
973.00                    4.2148
973.50                    3.8236
974.00                    4.7259
974.50                    3.9786
975.00                    3.0922
975.50                    2.9401
976.00                    2.8811
976.50                    2.9031
977.00                    2.9512
977.50                    2.9681
978.00                    2.9422
978.50                    4.4136
979.00                   12.1606
979.50                   18.1350
980.00                   13.1736
980.50                    6.7000
981.00                    5.0119
981.50                    4.6090
982.00                    3.7573
982.50                    3.2047
983.00                    3.3814
983.50                    3.2007
984.00                    3.0038
984.50                    4.3141
985.00                    5.9522
985.50                    4.7936
986.00                    3.2148
986.50                    3.1224
987.00                    8.1663
987.50                   13.2910
988.00                    8.0238
988.50                    3.0481
989.00                    3.9497
989.50                    5.8934
990.00                    5.8248
990.50                    3.8817
991.00                    5.8082
991.50                   11.2773
992.00                   10.8446
992.50                    5.3975
993.00                    2.9554
993.50                    3.0631
994.00                    5.8648
994.50                   12.6234
995.00                   14.2854
995.50                   10.7633
996.00                   12.9412
996.50                   12.8893
997.00                    7.0977
997.50                    4.5973
998.00                    3.7996
998.50                    2.9937
999.00                    2.9395
999.50                    3.2500
1000.00                   4.0090
1000.50                   4.2018
1001.00                  10.0516
1001.50                  17.2652
1002.00                  11.7916
1002.50                   6.7944
1003.00                   6.8062
1003.50                   4.4966
1004.00                   3.7627
1004.50                   4.5638
1005.00                   3.8977
1005.50                   3.5043
1006.00                   4.8262
1006.50                   5.7714
1007.00                   5.1245
1007.50                   4.2431
1008.00                   7.0008
1008.50                  10.4514
1009.00                   6.7361
1009.50                   3.1271
1010.00                   4.3178
1010.50                   5.8209
1011.00                   4.7237
1011.50                   3.1785
1012.00                   6.1150
1012.50                  10.8358
1013.00                   8.9062
1013.50                   4.4902
1014.00                   3.1234
1014.50                   3.3033
1015.00                   5.0019
1015.50                   7.2648
1016.00                   7.0408
1016.50                   5.4900
1017.00                  10.5541
1017.50                  16.3382
1018.00                  10.7738
1018.50                   8.5877
1019.00                  13.2449
1019.50                  12.0749
1020.00                   8.1353
1020.50                   9.4418
1021.00                  15.7105
1021.50                  18.4008
1022.00                   9.8448
1022.50                   5.9682
1023.00                   9.9851
1023.50                   9.3469
1024.00                   4.8915
1024.50                   2.8401
1025.00                   2.8392
1025.50                   2.8372
1026.00                   2.8376
1026.50                   2.9037
1027.00                   3.3825
1027.50                   3.7491
1028.00                   5.3974
1028.50                  27.4290
1029.00                  48.3068
1029.50                  32.3474
1030.00                  16.7671
1030.50                  10.2884
1031.00                   6.7991
1031.50                   6.2834
1032.00                   3.9001
1032.50                   3.6004
1033.00                   4.1718
1033.50                   3.5290
1034.00                   3.1749
1034.50                   7.4297
1035.00                  12.0097
1035.50                   7.9772
1036.00                   3.4849
1036.50                   2.9528
1037.00                  15.8691
1037.50                  30.7878
1038.00                  18.0563
1038.50                   3.8846
1039.00                   3.1261
1039.50                   8.4097
1040.00                  13.3186
1040.50                   7.7524
1041.00                   2.8256
1041.50                  15.3710
1042.00                  31.1161
1042.50                  20.3436
1043.00                   5.3773
1043.50                   2.9226
1044.00                   2.7971
1044.50                   3.7974
1045.00                   7.9187
1045.50                  10.0469
1046.00                   5.7882
1046.50                   9.5626
1047.00                  19.8609
1047.50                  15.8513
1048.00                   5.7994
1048.50                   2.7529
1049.00                   2.7504
1049.50                   2.7619
1050.00                   2.7800
1050.50                   4.1899
1051.00                   6.4888
1051.50                   5.8240
1052.00                   5.6939
1052.50                   9.7565
1053.00                  10.2091
1053.50                   5.3104
1054.00                   2.7327
1054.50                   2.7310
1055.00                   2.7292
1055.50                   2.7274
1056.00                   2.7256
1056.50                   2.7304
1057.00                   3.5632
1057.50                   4.4777
1058.00                   3.9216
1058.50                   4.7888
1059.00                   5.9621
1059.50                   4.1514
1060.00                   2.7244
1060.50                   2.7207
1061.00                   2.7115
1061.50                   2.7056
1062.00                   2.7036
1062.50                   2.7014
1063.00                   2.6994
1063.50                   2.7456
1064.00                   3.0106
1064.50                   3.1955
1065.00                   3.3761
1065.50                   3.6515
1066.00                   3.1827
1066.50                   2.7076
1067.00                   2.6842
1067.50                   2.6809
1068.00                   2.7972
1068.50                   3.5593
1069.00                   4.5135
1069.50                   6.0125
1070.00                   7.7615
1070.50                   7.3347
1071.00                   9.9137
1071.50                  12.9712
1072.00                   9.8548
1072.50                  13.9541
1073.00                  21.4980
1073.50                  14.9486
1074.00                   8.5226
1074.50                  11.5340
1075.00                  20.0709
1075.50                  25.1790
1076.00                  12.5728
1076.50                   2.7264
1077.00                   6.7055
1077.50                  10.8766
1078.00                   6.8111
1078.50                   2.7667
1079.00                   2.6523
1079.50                   2.6613
1080.00                   2.6607
1080.50                   2.6620
1081.00                   2.6430
1081.50                   2.6250
1082.00                   2.6272
1082.50                   6.7205
1083.00                  39.1501
1083.50                  65.4825
1084.00                  43.5472
1084.50                  25.0510
1085.00                  13.5363
1085.50                   7.1707
1086.00                  10.0564
1086.50                   6.0355
1087.00                   2.8590
1087.50                   3.9983
1088.00                   4.8055
1088.50                   3.5759
1089.00                   3.7000
1089.50                  10.1195
1090.00                  14.8100
1090.50                   8.2456
1091.00                   2.8084
1091.50                   2.5956
1092.00                  19.4508
1092.50                  40.9108
1093.00                  28.0136
1093.50                   6.9027
1094.00                   2.6164
1094.50                   9.0740
1095.00                  17.3780
1095.50                  12.1234
1096.00                   3.9903
1096.50                   2.7752
1097.00                  24.6240
1097.50                  48.0752
1098.00                  25.6450
1098.50                   3.4437
1099.00                   2.5256
1099.50                   2.5006
1100.00                   2.9671
