# sky background 0.3-1.0um
# BRIGHT optical sky - 100%ile conditions (day 14)
# AM=1.5
#
#derived from sky spectrum with constant slope to match assumed photometric background
#increasingly poor model at very bright sky (day14);  patched to near-IR background at 920nm
#
#1 March 2001 : Phil Puxley

#nm         phot/s/nm/arcsec^2/m^2
320.00                    0.0000
349.99                    0.0000
350.17                   21.5069
350.43                   21.4983
350.70                   21.4898
350.96                   21.4812
351.23                   21.4726
351.49                   21.4641
351.76                   21.4555
352.02                   21.4469
352.29                   21.4384
352.55                   21.4298
352.82                   21.4213
353.08                   21.4127
353.35                   21.4041
353.62                   21.3956
353.88                   21.3870
354.15                   21.3784
354.41                   21.3699
354.68                   21.3613
354.94                   21.3527
355.21                   21.3442
355.47                   21.3356
355.74                   21.3271
356.00                   21.3185
356.27                   21.3099
356.53                   21.3014
356.80                   21.2928
357.07                   21.2842
357.33                   21.2757
357.60                   21.2671
357.86                   21.2586
358.13                   21.2500
358.39                   21.2414
358.66                   21.2329
358.92                   21.2243
359.19                   21.2157
359.45                   21.2072
359.72                   21.1986
359.98                   21.1900
360.25                   21.1815
360.51                   21.1729
360.78                   21.1644
361.05                   21.1558
361.31                   21.1472
361.58                   21.1387
361.84                   21.1301
362.11                   21.1215
362.37                   21.1130
362.64                   21.1044
362.90                   21.0959
363.17                   21.0873
363.43                   21.0787
363.70                   21.0702
363.96                   21.0616
364.23                   21.0530
364.49                   21.0445
364.76                   21.0359
365.03                   21.0273
365.29                   21.0188
365.56                   21.0102
365.82                   21.0017
366.09                   20.9931
366.35                   20.9845
366.62                   20.9760
366.88                   20.9674
367.15                   20.9588
367.41                   20.9503
367.68                   20.9417
367.94                   20.9332
368.21                   20.9246
368.47                   20.9160
368.74                   20.9075
369.01                   20.8989
369.27                   20.8903
369.54                   20.8818
369.80                   20.8732
370.07                   20.8646
370.33                   20.8561
370.60                   20.8475
370.86                   20.8390
371.13                   20.8304
371.39                   20.8218
371.66                   20.8133
371.92                   20.8047
372.19                   20.7961
372.45                   20.7876
372.72                   20.7790
372.99                   20.7705
373.25                   20.7619
373.52                   20.7533
373.78                   20.7448
374.05                   20.7362
374.31                   20.7276
374.58                   20.7191
374.84                   20.7105
375.11                   20.7019
375.37                   20.6934
375.64                   20.6848
375.90                   20.6763
376.17                   20.6677
376.43                   20.6591
376.70                   20.6506
376.97                   20.6420
377.23                   20.6334
377.50                   20.6249
377.76                   20.6163
378.03                   20.6078
378.29                   20.5992
378.56                   20.5906
378.82                   20.5821
379.09                   20.5735
379.35                   20.5649
379.62                   20.5564
379.88                   20.5478
380.15                   20.5392
380.41                   20.5307
380.68                   20.5221
380.95                   20.5136
381.21                   20.5050
381.48                   20.4964
381.74                   20.4879
382.01                   20.4793
382.27                   20.4707
382.54                   20.4622
382.80                   20.4536
383.07                   20.4451
383.33                   20.4365
383.60                   20.4279
383.86                   20.4194
384.13                   20.4108
384.40                   20.4022
384.66                   20.3937
384.93                   20.3851
385.19                   20.3765
385.46                   20.3680
385.72                   20.3594
385.99                   20.3509
386.25                   20.3423
386.52                   20.3338
386.78                   20.3252
387.05                   20.3167
387.31                   20.3081
387.58                   20.2996
387.84                   20.2910
388.11                   20.2825
388.38                   20.2739
388.64                   20.2654
388.91                   20.2568
389.17                   20.2483
389.44                   20.2398
389.70                   20.2312
389.97                   20.2227
390.23                   20.2142
390.50                   20.2057
390.76                   20.1971
391.03                   20.1886
391.29                   20.1801
391.56                   20.1716
391.82                   20.1631
392.09                   20.1545
392.36                   20.1460
392.62                   20.1375
392.89                   20.1290
393.15                   20.1205
393.42                   20.1119
393.68                   20.1034
393.95                   20.0949
394.21                   20.0864
394.48                   20.0779
394.74                   20.0693
395.01                   20.0608
395.27                   20.0523
395.54                   20.0438
395.80                   20.0353
396.07                   20.0267
396.34                   20.0182
396.60                   20.0097
396.87                   20.0012
397.13                   19.9926
397.40                   19.9841
397.66                   19.9756
397.93                   19.9671
398.19                   19.9585
398.46                   19.9500
398.72                   19.9415
398.99                   19.9330
399.25                   19.9244
399.52                   19.9159
399.78                   19.9074
400.05                   19.8988
400.32                   19.8903
400.58                   19.8818
400.85                   19.8733
401.11                   19.8647
401.38                   19.8562
401.64                   19.8477
401.91                   19.8391
402.17                   19.8306
402.44                   19.8221
402.70                   19.8135
402.97                   19.8050
403.23                   19.7965
403.50                   19.7879
403.76                   19.7794
404.03                   19.7709
404.30                   19.7623
404.56                   19.7538
404.83                   19.7453
405.09                   19.7368
405.36                   19.7282
405.62                   19.7197
405.89                   19.7112
406.15                   19.7027
406.42                   19.6942
406.68                   19.6856
406.95                   19.6771
407.21                   19.6686
407.48                   19.6601
407.74                   19.6516
408.01                   19.6431
408.28                   19.6345
408.54                   19.6260
408.81                   19.6175
409.07                   19.6090
409.34                   19.6005
409.60                   19.5920
409.87                   19.5835
410.13                   19.5750
410.40                   19.5665
410.66                   19.5580
410.93                   19.5496
411.19                   19.5411
411.46                   19.5326
411.73                   19.5241
411.99                   19.5156
412.26                   19.5071
412.52                   19.4987
412.79                   19.4902
413.05                   19.4817
413.32                   19.4732
413.58                   19.4647
413.85                   19.4562
414.11                   19.4477
414.38                   19.4392
414.64                   19.4308
414.91                   19.4223
415.17                   19.4138
415.44                   19.4053
415.71                   19.3968
415.97                   19.3883
416.24                   19.3798
416.50                   19.3713
416.77                   19.3628
417.03                   19.3543
417.30                   19.3458
417.56                   19.3373
417.83                   19.3288
418.09                   19.3203
418.36                   19.3118
418.62                   19.3033
418.89                   19.2948
419.15                   19.2863
419.42                   19.2778
419.69                   19.2693
419.95                   19.2608
420.22                   19.2522
420.48                   19.2437
420.75                   19.2352
421.01                   19.2266
421.28                   19.2181
421.54                   19.2096
421.81                   19.2011
422.07                   19.1925
422.34                   19.1840
422.60                   19.1755
422.87                   19.1669
423.13                   19.1584
423.40                   19.1499
423.67                   19.1413
423.93                   19.1328
424.20                   19.1243
424.46                   19.1158
424.73                   19.1072
424.99                   19.0987
425.26                   19.0902
425.52                   19.0817
425.79                   19.0731
426.05                   19.0646
426.32                   19.0561
426.58                   19.0476
426.85                   19.0390
427.11                   19.0305
427.38                   19.0220
427.65                   19.0135
427.91                   19.0049
428.18                   18.9964
428.44                   18.9879
428.71                   18.9794
428.97                   18.9709
429.24                   18.9623
429.50                   18.9538
429.77                   18.9453
430.03                   18.9368
430.30                   18.9283
430.56                   18.9198
430.83                   18.9113
431.09                   18.9028
431.36                   18.8943
431.63                   18.8858
431.89                   18.8772
432.16                   18.8687
432.42                   18.8602
432.69                   18.8517
432.95                   18.8432
433.22                   18.8347
433.48                   18.8262
433.75                   18.8177
434.01                   18.8092
434.28                   18.8007
434.54                   18.7922
434.81                   18.7837
435.07                   18.7752
435.34                   18.7667
435.61                   18.7582
435.87                   18.7497
436.14                   18.7412
436.40                   18.7327
436.67                   18.7242
436.93                   18.7158
437.20                   18.7073
437.46                   18.6988
437.73                   18.6903
437.99                   18.6818
438.26                   18.6733
438.52                   18.6648
438.79                   18.6563
439.05                   18.6479
439.32                   18.6394
439.59                   18.6309
439.85                   18.6224
440.12                   18.6140
440.38                   18.6055
440.65                   18.5971
440.91                   18.5886
441.18                   18.5802
441.44                   18.5717
441.71                   18.5633
441.97                   18.5548
442.24                   18.5463
442.50                   18.5379
442.77                   18.5294
443.04                   18.5210
443.30                   18.5125
443.57                   18.5041
443.83                   18.4956
444.10                   18.4871
444.36                   18.4787
444.63                   18.4702
444.89                   18.4618
445.16                   18.4533
445.42                   18.4448
445.69                   18.4364
445.95                   18.4279
446.22                   18.4195
446.48                   18.4110
446.75                   18.4025
447.02                   18.3941
447.28                   18.3856
447.55                   18.3771
447.81                   18.3686
448.08                   18.3602
448.34                   18.3517
448.61                   18.3432
448.87                   18.3347
449.14                   18.3263
449.40                   18.3178
449.67                   18.3093
449.93                   18.3008
450.20                   18.2923
450.46                   18.2838
450.73                   18.2753
451.00                   18.2668
451.26                   18.2583
451.53                   18.2498
451.79                   18.2413
452.06                   18.2328
452.32                   18.2243
452.59                   18.2158
452.85                   18.2073
453.12                   18.1988
453.38                   18.1903
453.65                   18.1818
453.91                   18.1733
454.18                   18.1648
454.44                   18.1563
454.71                   18.1478
454.98                   18.1393
455.24                   18.1308
455.51                   18.1223
455.77                   18.1138
456.04                   18.1053
456.30                   18.0969
456.57                   18.0884
456.83                   18.0799
457.10                   18.0714
457.36                   18.0629
457.63                   18.0544
457.89                   18.0459
458.16                   18.0374
458.42                   18.0289
458.69                   18.0204
458.96                   18.0119
459.22                   18.0034
459.49                   17.9950
459.75                   17.9865
460.02                   17.9780
460.28                   17.9695
460.55                   17.9610
460.81                   17.9525
461.08                   17.9441
461.34                   17.9356
461.61                   17.9271
461.87                   17.9186
462.14                   17.9102
462.40                   17.9017
462.67                   17.8932
462.94                   17.8847
463.20                   17.8763
463.47                   17.8678
463.73                   17.8593
464.00                   17.8508
464.26                   17.8424
464.53                   17.8339
464.79                   17.8254
465.06                   17.8169
465.32                   17.8085
465.59                   17.8000
465.85                   17.7915
466.12                   17.7831
466.38                   17.7746
466.65                   17.7661
466.92                   17.7577
467.18                   17.7492
467.45                   17.7408
467.71                   17.7323
467.98                   17.7238
468.24                   17.7154
468.51                   17.7070
468.77                   17.6985
469.04                   17.6901
469.30                   17.6816
469.57                   17.6732
469.83                   17.6647
470.10                   17.6563
470.37                   17.6479
470.63                   17.6395
470.90                   17.6311
471.16                   17.6226
471.43                   17.6142
471.69                   17.6058
471.96                   17.5974
472.22                   17.5890
472.49                   17.5805
472.75                   17.5721
473.02                   17.5637
473.28                   17.5553
473.55                   17.5469
473.81                   17.5384
474.08                   17.5300
474.35                   17.5216
474.61                   17.5132
474.88                   17.5047
475.14                   17.4963
475.41                   17.4879
475.67                   17.4794
475.94                   17.4710
476.20                   17.4626
476.47                   17.4541
476.73                   17.4457
477.00                   17.4372
477.26                   17.4288
477.53                   17.4204
477.79                   17.4119
478.06                   17.4035
478.33                   17.3950
478.59                   17.3865
478.86                   17.3781
479.12                   17.3696
479.39                   17.3612
479.65                   17.3527
479.92                   17.3442
480.18                   17.3357
480.45                   17.3272
480.71                   17.3187
480.98                   17.3102
481.24                   17.3017
481.51                   17.2932
481.77                   17.2847
482.04                   17.2762
482.31                   17.2677
482.57                   17.2592
482.84                   17.2507
483.10                   17.2422
483.37                   17.2336
483.63                   17.2251
483.90                   17.2166
484.16                   17.2081
484.43                   17.1996
484.69                   17.1911
484.96                   17.1826
485.22                   17.1741
485.49                   17.1656
485.75                   17.1571
486.02                   17.1486
486.29                   17.1401
486.55                   17.1316
486.82                   17.1231
487.08                   17.1146
487.35                   17.1061
487.61                   17.0976
487.88                   17.0892
488.14                   17.0807
488.41                   17.0722
488.67                   17.0637
488.94                   17.0552
489.20                   17.0467
489.47                   17.0382
489.73                   17.0297
490.00                   17.0212
490.27                   17.0128
490.53                   17.0043
490.80                   16.9958
491.06                   16.9873
491.33                   16.9789
491.59                   16.9704
491.86                   16.9619
492.12                   16.9535
492.39                   16.9450
492.65                   16.9365
492.92                   16.9281
493.18                   16.9196
493.45                   16.9111
493.71                   16.9026
493.98                   16.8942
494.25                   16.8857
494.51                   16.8772
494.78                   16.8688
495.04                   16.8603
495.31                   16.8518
495.57                   16.8434
495.84                   16.8349
496.10                   16.8264
496.37                   16.8179
496.63                   16.8095
496.90                   16.8010
497.16                   16.7925
497.43                   16.7841
497.70                   16.7756
497.96                   16.7671
498.23                   16.7587
498.49                   16.7502
498.76                   16.7417
499.02                   16.7333
499.29                   16.7248
499.55                   16.7164
499.82                   16.7079
500.08                   16.6994
500.35                   16.6910
500.61                   16.6825
500.88                   16.6741
501.14                   16.6656
501.41                   16.6572
501.68                   16.6487
501.94                   16.6403
502.21                   16.6318
502.47                   16.6233
502.74                   16.6149
503.00                   16.6064
503.27                   16.5980
503.53                   16.5895
503.80                   16.5811
504.06                   16.5726
504.33                   16.5642
504.59                   16.5557
504.86                   16.5473
505.12                   16.5388
505.39                   16.5304
505.66                   16.5219
505.92                   16.5135
506.19                   16.5050
506.45                   16.4965
506.72                   16.4881
506.98                   16.4796
507.25                   16.4712
507.51                   16.4627
507.78                   16.4543
508.04                   16.4458
508.31                   16.4374
508.57                   16.4289
508.84                   16.4205
509.10                   16.4120
509.37                   16.4036
509.64                   16.3951
509.90                   16.3867
510.17                   16.3783
510.43                   16.3699
510.70                   16.3614
510.96                   16.3535
511.23                   16.3421
511.49                   16.3376
511.76                   16.3312
512.02                   16.3221
512.29                   16.3030
512.55                   16.2819
512.82                   16.2738
513.08                   16.2775
513.35                   16.2763
513.62                   16.2642
513.88                   16.2483
514.15                   16.2419
514.41                   16.2346
514.68                   16.2285
514.94                   16.2160
515.21                   16.2054
515.47                   16.1914
515.74                   16.1804
516.00                   16.1737
516.27                   16.1582
516.53                   16.1440
516.80                   16.1312
517.06                   16.1368
517.33                   16.1345
517.60                   16.1353
517.86                   16.1144
518.13                   16.1117
518.39                   16.1044
518.66                   16.1128
518.92                   16.0987
519.19                   16.1015
519.45                   16.2005
519.72                   16.3201
519.98                   16.3487
520.25                   16.2414
520.51                   16.1089
520.78                   16.0517
521.04                   16.0265
521.31                   16.0158
521.58                   16.0093
521.84                   16.0077
522.11                   16.0116
522.37                   15.9900
522.64                   15.9690
522.90                   15.9514
523.17                   15.9502
523.43                   15.9480
523.70                   15.9448
523.96                   15.9383
524.23                   15.9270
524.49                   15.9131
524.76                   15.8996
525.03                   15.8995
525.29                   15.8952
525.56                   15.8919
525.82                   15.8705
526.09                   15.8466
526.35                   15.8286
526.62                   15.8204
526.88                   15.8223
527.15                   15.8311
527.41                   15.8371
527.68                   15.8327
527.94                   15.8295
528.21                   15.8081
528.47                   15.7865
528.74                   15.7626
529.01                   15.7604
529.27                   15.7611
529.54                   15.7604
529.80                   15.7538
530.07                   15.7458
530.33                   15.7326
530.60                   15.7234
530.86                   15.7311
531.13                   15.7253
531.39                   15.7156
531.66                   15.6889
531.92                   15.6769
532.19                   15.6656
532.45                   15.6658
532.72                   15.6738
532.99                   15.6861
533.25                   15.6689
533.52                   15.6427
533.78                   15.6154
534.05                   15.6075
534.31                   15.6048
534.58                   15.5996
534.84                   15.5874
535.11                   15.5721
535.37                   15.5626
535.64                   15.5618
535.90                   15.5587
536.17                   15.5489
536.43                   15.5352
536.70                   15.5249
536.97                   15.5144
537.23                   15.5142
537.50                   15.5025
537.76                   15.4883
538.03                   15.4657
538.29                   15.4549
538.56                   15.4495
538.82                   15.4536
539.09                   15.4421
539.35                   15.4326
539.62                   15.4175
539.88                   15.4127
540.15                   15.4069
540.41                   15.3969
540.68                   15.3973
540.95                   15.3838
541.21                   15.3841
541.48                   15.3651
541.74                   15.3635
542.01                   15.3425
542.27                   15.3319
542.54                   15.3216
542.80                   15.3187
543.07                   15.3213
543.33                   15.3217
543.60                   15.3130
543.86                   15.3060
544.13                   15.2818
544.39                   15.2787
544.66                   15.2657
544.93                   15.2702
545.19                   15.2606
545.46                   15.2506
545.72                   15.2398
545.99                   15.2355
546.25                   15.2332
546.52                   15.2280
546.78                   15.2131
547.05                   15.1890
547.31                   15.1672
547.58                   15.1597
547.84                   15.1601
548.11                   15.1519
548.37                   15.1495
548.64                   15.1468
548.91                   15.1563
549.17                   15.1442
549.44                   15.1432
549.70                   15.1311
549.97                   15.1262
550.23                   15.1121
550.50                   15.1045
550.76                   15.0957
551.03                   15.0852
551.29                   15.0731
551.56                   15.0634
551.82                   15.0536
552.09                   15.0385
552.36                   15.0190
552.62                   15.0064
552.89                   15.0020
553.15                   15.0131
553.42                   15.0089
553.68                   15.0101
553.95                   15.0060
554.21                   15.0187
554.48                   15.0149
554.74                   15.0004
555.01                   14.9798
555.27                   14.9645
555.54                   14.9498
555.80                   14.9456
556.07                   14.9505
556.34                   14.9533
556.60                   14.9458
556.87                   14.9499
557.13                   16.9045
557.40                   19.6336
557.66                   21.5222
557.93                   20.0086
558.19                   17.2613
558.46                   15.3321
558.72                   14.8709
558.99                   14.8565
559.25                   14.8434
559.52                   14.8240
559.78                   14.8156
560.05                   14.8243
560.32                   14.8260
560.58                   14.8232
560.85                   14.7915
561.11                   14.7570
561.38                   14.7487
561.64                   14.7602
561.91                   14.7848
562.17                   14.7878
562.44                   14.7757
562.70                   14.7418
562.97                   14.7105
563.23                   14.6865
563.50                   14.6848
563.76                   14.6849
564.03                   14.6815
564.30                   14.6823
564.56                   14.6856
564.83                   14.6753
565.09                   14.6500
565.36                   14.6218
565.62                   14.6129
565.89                   14.6113
566.15                   14.6130
566.42                   14.6177
566.68                   14.6187
566.95                   14.6047
567.21                   14.5895
567.48                   14.5763
567.74                   14.5764
568.01                   14.5571
568.28                   14.5429
568.54                   14.5193
568.81                   14.5223
569.07                   14.5285
569.34                   14.5360
569.60                   14.5396
569.87                   14.5196
570.13                   14.5102
570.40                   14.4843
570.66                   14.4798
570.93                   14.4609
571.19                   14.4547
571.46                   14.4499
571.72                   14.4587
571.99                   14.4590
572.26                   14.4540
572.52                   14.4323
572.79                   14.4221
573.05                   14.4091
573.32                   14.4022
573.58                   14.3896
573.85                   14.3757
574.11                   14.3740
574.38                   14.3689
574.64                   14.3636
574.91                   14.3418
575.17                   14.3282
575.44                   14.3143
575.70                   14.3167
575.97                   14.2994
576.24                   14.2927
576.50                   14.2840
576.77                   14.2869
577.03                   14.2805
577.30                   14.2678
577.56                   14.2548
577.83                   14.2465
578.09                   14.2351
578.36                   14.2271
578.62                   14.2091
578.89                   14.1993
579.15                   14.1929
579.42                   14.1868
579.68                   14.1860
579.95                   14.1806
580.22                   14.1873
580.48                   14.1798
580.75                   14.1644
581.01                   14.1445
581.28                   14.1371
581.54                   14.1353
581.81                   14.1443
582.07                   14.1472
582.34                   14.1422
582.60                   14.1192
582.87                   14.1096
583.13                   14.1005
583.40                   14.0920
583.67                   14.0821
583.93                   14.0884
584.20                   14.1660
584.46                   14.1494
584.73                   14.1300
584.99                   14.0377
585.26                   14.0368
585.52                   14.0181
585.79                   14.0171
586.05                   14.0448
586.32                   14.1177
586.58                   14.1535
586.85                   14.1367
587.11                   14.0712
587.38                   14.0418
587.65                   14.0169
587.91                   14.0072
588.18                   14.0118
588.44                   14.4810
588.71                   14.9959
588.97                   15.4089
589.24                   15.2183
589.50                   14.8647
589.77                   14.4479
590.03                   14.1576
590.30                   13.9883
590.56                   13.9600
590.83                   13.9631
591.09                   13.9877
591.36                   14.0020
591.63                   13.9867
591.89                   13.9516
592.16                   13.9196
592.42                   13.9014
592.69                   13.9090
592.95                   13.9417
593.22                   13.9750
593.48                   13.9260
593.75                   13.8502
594.01                   13.7942
594.28                   13.8053
594.54                   13.8131
594.81                   13.8405
595.07                   13.8622
595.34                   13.8561
595.61                   13.8073
595.87                   13.7446
596.14                   13.7179
596.40                   13.7093
596.67                   13.7264
596.93                   13.7431
597.20                   13.7591
597.46                   13.7702
597.73                   13.7546
597.99                   13.7169
598.26                   13.6678
598.52                   13.6495
598.79                   13.6543
599.05                   13.6420
599.32                   13.6244
599.59                   13.6113
599.85                   13.6101
600.12                   13.6179
600.38                   13.6010
600.65                   13.5843
600.91                   13.5532
601.18                   13.5338
601.44                   13.5140
601.71                   13.4993
601.97                   13.4846
602.24                   13.4741
602.50                   13.4757
602.77                   13.4790
603.03                   13.4752
603.30                   13.4610
603.57                   13.4450
603.83                   13.4329
604.10                   13.4237
604.36                   13.4149
604.63                   13.4004
604.89                   13.3808
605.16                   13.3604
605.42                   13.3446
605.69                   13.3373
605.95                   13.3353
606.22                   13.3377
606.48                   13.3340
606.75                   13.3171
607.01                   13.3064
607.28                   13.2907
607.55                   13.2912
607.81                   13.2729
608.08                   13.2676
608.34                   13.2530
608.61                   13.2455
608.87                   13.2377
609.14                   13.2294
609.40                   13.2307
609.67                   13.2250
609.93                   13.2184
610.20                   13.2056
610.46                   13.2000
610.73                   13.1898
611.00                   13.1793
611.26                   13.1580
611.53                   13.1485
611.79                   13.1286
612.06                   13.1171
612.32                   13.1119
612.59                   13.1083
612.85                   13.1020
613.12                   13.0835
613.38                   13.1020
613.65                   13.1198
613.91                   13.1372
614.18                   13.1142
614.44                   13.0964
614.71                   13.0651
614.98                   13.0518
615.24                   13.0663
615.51                   13.0991
615.77                   13.0944
616.04                   13.0456
616.30                   13.0129
616.57                   13.0259
616.83                   13.0497
617.10                   13.3432
617.36                   13.3246
617.63                   13.2944
617.89                   12.9663
618.16                   12.9378
618.42                   12.9162
618.69                   12.9048
618.96                   12.8939
619.22                   12.8925
619.49                   12.8855
619.75                   12.9033
620.02                   12.9221
620.28                   12.9263
620.55                   12.8958
620.81                   12.8660
621.08                   12.8564
621.34                   12.8570
621.61                   12.8732
621.87                   12.8927
622.14                   12.8837
622.40                   12.8416
622.67                   12.8103
622.94                   12.8606
623.20                   13.0102
623.47                   13.1298
623.73                   13.1508
624.00                   13.0407
624.26                   12.9301
624.53                   12.8277
624.79                   12.7726
625.06                   12.7734
625.32                   12.8639
625.59                   12.9693
625.85                   12.9949
626.12                   12.9326
626.38                   12.8520
626.65                   12.8002
626.92                   12.7611
627.18                   12.7283
627.45                   12.7153
627.71                   12.7131
627.98                   12.7178
628.24                   12.7561
628.51                   12.8290
628.77                   12.8516
629.04                   12.8374
629.30                   13.9539
629.57                   19.5550
629.83                   24.9361
630.10                   27.7241
630.36                   22.1555
630.63                   16.7908
630.90                   12.7628
631.16                   12.6408
631.43                   12.5519
631.69                   12.5825
631.96                   12.6353
632.22                   12.6366
632.49                   12.6858
632.75                   12.7095
633.02                   12.7530
633.28                   12.6457
633.55                   12.5302
633.81                   12.4431
634.08                   12.4296
634.34                   12.4599
634.61                   12.4741
634.88                   12.4938
635.14                   12.5240
635.41                   12.5857
635.67                   13.1405
635.94                   14.7343
636.20                   16.4165
636.47                   16.9657
636.73                   15.2946
637.00                   13.4941
637.26                   12.3461
637.53                   12.3483
637.79                   12.3583
638.06                   12.3641
638.33                   12.3708
638.59                   12.3642
638.86                   12.3336
639.12                   12.2857
639.39                   12.2527
639.65                   12.2334
639.92                   12.2325
640.18                   12.2212
640.45                   12.2227
640.71                   12.2076
640.98                   12.2029
641.24                   12.1914
641.51                   12.1937
641.77                   12.2011
642.04                   12.2045
642.31                   12.1883
642.57                   12.1599
642.84                   12.1385
643.10                   12.1265
643.37                   12.1100
643.63                   12.0882
643.90                   12.0746
644.16                   12.0704
644.43                   12.0730
644.69                   12.0753
644.96                   12.0838
645.22                   12.1040
645.49                   12.1054
645.75                   12.1039
646.02                   12.1547
646.29                   12.2356
646.55                   12.3073
646.82                   12.2879
647.08                   12.2037
647.35                   12.1212
647.61                   12.0462
647.88                   12.0254
648.14                   11.9987
648.41                   11.9886
648.67                   11.9627
648.94                   11.9444
649.20                   11.9367
649.47                   11.9339
649.73                   11.9340
650.00                   11.9296
650.27                   11.9481
650.53                   11.9331
650.80                   11.9133
651.06                   11.8761
651.33                   11.8740
651.59                   11.8612
651.86                   11.8482
652.12                   11.8434
652.39                   11.8433
652.65                   11.8374
652.92                   11.8290
653.18                   11.8194
653.45                   11.8177
653.71                   11.8136
653.98                   11.8141
654.25                   11.8080
654.51                   11.7883
654.78                   11.7842
655.04                   11.8324
655.31                   11.8335
655.57                   11.8252
655.84                   11.7598
656.10                   11.7427
656.37                   11.7171
656.63                   11.7757
656.90                   11.7773
657.16                   11.7761
657.43                   11.7301
657.69                   11.7118
657.96                   11.7032
658.23                   11.6615
658.49                   11.6594
658.76                   11.6457
659.02                   11.6346
659.29                   11.6258
659.55                   11.6179
659.82                   11.6100
660.08                   11.6031
660.35                   11.5953
660.61                   11.5891
660.88                   11.5748
661.14                   11.5796
661.41                   11.5700
661.67                   11.5635
661.94                   11.5429
662.21                   11.5366
662.47                   11.5473
662.74                   11.5589
663.00                   11.5496
663.27                   11.5254
663.53                   11.5071
663.80                   11.4989
664.06                   11.4870
664.33                   11.4701
664.59                   11.4637
664.86                   11.4561
665.12                   11.4509
665.39                   11.4461
665.66                   11.4407
665.92                   11.4303
666.19                   11.4178
666.45                   11.4138
666.72                   11.4057
666.98                   11.3978
667.25                   11.3830
667.51                   11.3751
667.78                   11.3691
668.04                   11.3612
668.31                   11.3532
668.57                   11.3434
668.84                   11.3355
669.10                   11.3275
669.37                   11.3198
669.64                   11.3216
669.90                   11.3162
670.17                   11.3081
670.43                   11.3052
670.70                   11.3146
670.96                   11.3346
671.23                   11.3219
671.49                   11.3090
671.76                   11.2885
672.02                   11.2736
672.29                   11.2620
672.55                   11.2427
672.82                   11.2317
673.08                   11.2125
673.35                   11.2316
673.62                   11.2236
673.88                   11.2157
674.15                   11.1781
674.41                   11.1715
674.68                   11.1646
674.94                   11.1567
675.21                   11.1477
675.47                   11.1417
675.74                   11.1326
676.00                   11.1278
676.27                   11.1189
676.53                   11.1107
676.80                   11.1115
677.06                   11.1195
677.33                   11.1117
677.60                   11.0933
677.86                   11.0675
678.13                   11.0594
678.39                   11.0496
678.66                   11.0418
678.92                   11.0545
679.19                   11.0468
679.45                   11.0427
679.72                   11.0334
679.98                   11.0253
680.25                   11.0133
680.51                   10.9860
680.78                   10.9781
681.04                   10.9702
681.31                   10.9623
681.58                   10.9543
681.84                   10.9464
682.11                   10.9385
682.37                   10.9305
682.64                   10.9419
682.90                   10.9390
683.17                   11.2712
683.43                   11.2443
683.70                   11.2315
683.96                   10.8977
684.23                   10.8897
684.49                   10.8818
684.76                   10.8591
685.02                   10.8512
685.29                   10.8433
685.56                   10.8353
685.82                   10.8274
686.09                   11.3216
686.35                   11.3141
686.62                   11.3067
686.88                   10.8062
687.15                   10.7983
687.41                   10.7903
687.68                   10.7717
687.94                   10.7817
688.21                   10.7738
688.47                   10.7670
688.74                   10.7409
689.00                   10.7361
689.27                   10.7271
689.54                   10.7221
689.80                   10.9699
690.07                   10.9625
690.33                   10.9573
690.60                   10.6895
690.86                   10.6815
691.13                   10.6683
691.39                   10.6604
691.66                   10.6647
691.92                   10.6567
692.19                   10.6488
692.45                   10.6285
692.72                   10.6205
692.99                   10.6125
693.25                   10.6130
693.52                   10.6141
693.78                   10.6195
694.05                   10.6047
694.31                   10.5891
694.58                   10.5677
694.84                   10.5722
695.11                   10.5692
695.37                   10.5806
695.64                   10.5876
695.90                   10.5894
696.17                   10.5670
696.43                   10.5329
696.70                   10.5718
696.97                   10.5690
697.23                   10.5691
697.50                   10.5020
697.76                   10.4849
698.03                   10.4660
698.29                   10.4537
698.56                   10.4526
698.82                   10.4470
699.09                   10.4390
699.35                   10.4311
699.62                   10.4250
699.88                   10.4296
700.15                   10.4171
700.41                   10.4048
700.68                   10.3842
700.95                   10.3727
701.21                   10.3646
701.48                   10.3566
701.74                   10.3485
702.01                   10.3405
702.27                   10.3324
702.54                   10.3248
702.80                   10.3200
703.07                   10.3135
703.33                   10.3050
703.60                   10.2980
703.86                   10.3309
704.13                   10.3378
704.39                   10.3258
704.66                   10.2767
704.93                   10.2657
705.19                   10.2573
705.46                   10.2478
705.72                   10.2405
705.99                   10.2450
706.25                   10.2370
706.52                   10.2195
706.78                   10.2232
707.05                   10.2354
707.31                   10.2242
707.58                   10.2014
707.84                   10.1821
708.11                   10.1741
708.37                   10.1564
708.64                   10.1397
708.91                   10.1320
709.17                   10.1239
709.44                   10.1223
709.70                   10.1156
709.97                   10.1075
710.23                   10.0927
710.50                   10.1120
710.76                   10.1144
711.03                   10.1066
711.29                   10.0696
711.56                   10.0511
711.82                   10.0430
712.09                   10.0349
712.35                   10.0269
712.62                   10.0189
712.89                   10.0165
713.15                   10.0085
713.42                   10.0005
713.68                    9.9970
713.95                    9.9890
714.21                    9.9810
714.48                    9.9627
714.74                    9.9547
715.01                    9.9467
715.27                    9.9418
715.54                    9.9427
715.80                    9.9347
716.07                    9.9236
716.33                    9.9112
716.60                    9.9032
716.87                    9.8952
717.13                    9.8827
717.40                    9.8746
717.66                    9.8702
717.93                    9.8622
718.19                    9.8542
718.46                    9.8426
718.72                    9.8346
718.99                    9.8266
719.25                    9.8187
719.52                    9.8107
719.78                    9.8027
720.05                    9.7947
720.32                    9.7868
720.58                    9.7788
720.85                    9.7709
721.11                    9.7630
721.38                    9.7550
721.64                    9.7471
721.91                    9.7391
722.17                    9.7334
722.44                    9.7255
722.70                    9.7198
722.97                    9.7096
723.23                    9.7017
723.50                    9.6915
723.76                    9.7983
724.03                    9.7906
724.30                    9.8795
724.56                    9.7688
724.83                    9.7639
725.09                    9.6590
725.36                    9.6430
725.62                    9.6322
725.89                    9.6243
726.15                    9.6122
726.42                    9.6042
726.68                    9.6045
726.95                    9.5966
727.21                    9.6826
727.48                    9.6666
727.74                    9.6589
728.01                    9.5567
728.28                    9.5551
728.54                    9.5472
728.81                    9.5416
729.07                    9.5292
729.34                    9.7013
729.60                    9.6914
729.87                    9.6819
730.13                    9.5209
730.40                    9.5136
730.66                    9.5057
730.93                    9.4970
731.19                    9.4885
731.46                    9.5084
731.72                    9.5068
731.99                    9.4990
732.26                    9.4633
732.52                    9.4219
732.79                    9.4176
733.05                    9.4097
733.32                    9.4018
733.58                    9.3902
733.85                   11.1241
734.11                   11.1325
734.38                   11.1274
734.64                    9.3774
734.91                    9.3568
735.17                    9.3489
735.44                    9.3504
735.70                    9.3415
735.97                    9.3393
736.24                    9.3165
736.50                    9.3146
736.77                    9.3011
737.03                    9.3129
737.30                    9.3015
737.56                    9.3120
737.83                    9.2885
738.09                    9.3006
738.36                    9.2745
738.62                    9.2630
738.89                    9.2328
739.15                    9.2246
739.42                    9.2162
739.68                    9.2124
739.95                    9.2122
740.22                    9.2045
740.48                    9.1927
740.75                    9.1866
741.01                    9.2155
741.28                    9.2093
741.54                    9.2228
741.81                    9.1777
742.07                    9.1762
742.34                    9.1370
742.60                    9.1525
742.87                    9.1355
743.13                    9.1356
743.40                    9.1040
743.66                    9.1124
743.93                    9.1013
744.20                    9.0959
744.46                    9.0716
744.73                    9.0636
744.99                    9.0667
745.26                    9.0588
745.52                    9.0475
745.79                    9.0397
746.05                    9.0339
746.32                    9.0376
746.58                    9.0273
746.85                    9.2075
747.11                    9.2293
747.38                    9.2106
747.64                    9.1123
747.91                    9.0758
748.18                    9.0890
748.44                    8.9834
748.71                    8.9681
748.97                    8.9384
749.24                    8.9314
749.50                    8.9312
749.77                    8.9417
750.03                    8.9469
750.30                    8.9256
750.56                    8.9165
750.83                    8.9786
751.09                    8.9732
751.36                    9.0014
751.63                    8.9128
751.89                    8.9051
752.16                    9.2247
752.42                    9.2166
752.69                    9.2160
752.95                    8.8541
753.22                    8.8628
753.48                    8.8529
753.75                    8.8724
754.01                    8.8601
754.28                    8.8460
754.54                    8.7833
754.81                    8.7834
755.07                    8.8135
755.34                    8.8140
755.61                    8.7823
755.87                    8.7402
756.14                    8.7424
756.40                    8.7472
756.67                    8.7350
756.93                    9.3593
757.20                    9.4245
757.46                    9.4154
757.73                    8.7593
757.99                    8.6714
758.26                    8.6714
758.52                    8.6596
758.79                    8.6452
759.05                    8.6342
759.32                    8.6264
759.59                    8.8144
759.85                    8.8021
760.12                    8.7943
760.38                    8.5905
760.65                    8.5828
760.91                    8.5750
761.18                    8.5754
761.44                    8.5677
761.71                    8.5714
761.97                    8.5744
762.24                    8.5667
762.50                    8.5492
762.77                    8.5225
763.03                    8.5222
763.30                    8.5127
763.57                    8.5065
763.83                    8.4914
764.10                    8.4836
764.36                    8.5032
764.63                    8.4955
764.89                    8.4878
765.16                    8.4513
765.42                    8.4435
765.69                    8.4358
765.95                    8.6292
766.22                    8.6217
766.48                    8.6141
766.75                    8.4050
767.01                    8.4014
767.28                    8.3937
767.55                    8.3860
767.81                    8.3770
768.08                    8.3693
768.34                    8.3626
768.61                    8.3522
768.87                    8.3689
769.14                    8.3602
769.40                    8.3526
769.67                    8.3564
769.93                    8.3540
770.20                    8.3463
770.46                    8.3331
770.73                    8.3401
770.99                   10.1131
771.26                   10.4438
771.53                   10.7967
771.79                    9.0442
772.06                    8.6863
772.32                    8.6645
772.59                    8.6210
772.85                    8.6021
773.12                    8.2534
773.38                    8.2457
773.65                    8.2309
773.91                    8.2022
774.18                    8.1946
774.44                    8.1905
774.71                    8.1969
774.97                    8.2088
775.24                    8.1976
775.51                    8.1719
775.77                    8.1727
776.04                    8.1651
776.30                    8.1586
776.57                    8.1231
776.83                    8.1155
777.10                    8.1710
777.36                    8.1634
777.63                    8.1558
777.89                    8.0840
778.16                    8.0809
778.42                    8.1032
778.69                    8.1066
778.96                    8.1355
779.22                    8.1015
779.49                    8.0829
779.75                    8.0343
780.02                    8.0401
780.28                    8.0324
780.55                    8.3931
780.81                    8.3686
781.08                    8.3608
781.34                    8.0063
781.61                    8.0477
781.87                   11.8974
782.14                   11.8667
782.40                   11.8081
782.67                    7.9544
782.94                    7.9469
783.20                    7.9393
783.47                    7.9258
783.73                    7.9183
784.00                    7.9108
784.26                    7.9024
784.53                    7.8949
784.79                    7.8931
785.06                   10.7282
785.32                   10.7190
785.59                   10.7042
785.85                    7.8574
786.12                    7.8498
786.38                    7.8423
786.65                    7.8348
786.92                    7.8273
787.18                    7.8198
787.45                    7.8123
787.71                    7.8048
787.98                    7.7973
788.24                    7.7899
788.51                    7.7911
788.77                    7.8722
789.04                    7.8648
789.30                    7.8487
789.57                    7.7526
789.83                    7.7452
790.10                    7.7377
790.36                    7.7303
790.63                    7.7229
790.90                    7.7173
791.16                    7.7099
791.43                    7.7025
791.69                    7.7256
791.96                    7.7182
792.22                    7.7108
792.49                    7.6710
792.75                    7.6886
793.02                    7.6812
793.28                    7.6739
793.55                    7.6414
793.81                    7.6340
794.08                    7.6273
794.34                    7.6570
794.61                    7.6752
794.88                    7.6671
795.14                    7.6278
795.41                    7.5950
795.67                    7.5876
795.94                    7.5751
796.20                   10.2248
796.47                   10.2181
796.73                   10.2116
797.00                    7.5458
797.26                    7.5431
797.53                    7.5358
797.79                    7.5285
798.06                    7.5166
798.32                    7.5093
798.59                    7.5020
798.86                    7.5037
799.12                    7.5220
799.39                    7.5147
799.65                    7.4985
799.92                    7.4669
800.18                    7.4644
800.45                    7.4572
800.71                    7.4486
800.98                    7.4367
801.24                    7.4982
801.51                    7.4911
801.77                    7.5962
802.04                    7.5291
802.30                    9.0492
802.57                    9.0330
802.84                    9.0201
803.10                    7.4848
803.37                    7.3778
803.63                    7.3785
803.90                    7.3665
804.16                    7.3581
804.43                    7.3431
804.69                    7.3749
804.96                    7.5888
805.22                    7.5949
805.49                    7.5693
805.75                    7.3748
806.02                    7.3549
806.29                    7.3395
806.55                    7.3271
806.82                    7.3519
807.08                    7.3328
807.35                    7.3210
807.61                    7.3135
807.88                    7.3471
808.14                    7.4080
808.41                    7.3710
808.67                    7.3233
808.94                    7.2235
809.20                    7.2181
809.47                    7.2258
809.73                    7.2190
810.00                    7.5409
810.27                    7.5189
810.53                    7.5492
810.80                    7.2150
811.06                    7.2235
811.33                    7.1855
811.59                    7.1868
811.86                    7.1868
812.12                    7.1756
812.39                    7.2026
812.65                    7.1805
812.92                    7.1971
813.18                    7.1483
813.45                    7.1423
813.71                    7.1370
813.98                    7.1392
814.25                    7.1330
814.51                    7.1591
814.78                    7.3438
815.04                    7.3333
815.31                    7.2929
815.57                    7.1092
815.84                    7.0964
816.10                    7.0652
816.37                    7.1335
816.63                    7.1743
816.90                    7.1993
817.16                    7.0908
817.43                    7.0380
817.69                    7.0135
817.96                    7.0092
818.23                    7.0032
818.49                    7.0973
818.76                    7.1165
819.02                    7.1394
819.29                    7.1126
819.55                    7.0717
819.82                    7.0319
820.08                    6.9265
820.35                    6.9194
820.61                    6.9315
820.88                    6.9453
821.14                    6.9480
821.41                    6.9245
821.67                    6.9036
821.94                    6.9139
822.21                    6.9101
822.47                    6.9080
822.74                    6.9004
823.00                    6.8889
823.27                    6.8913
823.53                    6.8591
823.80                    6.8505
824.06                    6.8207
824.33                    6.8603
824.59                    6.8557
824.86                    6.8736
825.12                    6.8183
825.39                    6.8349
825.65                    6.8496
825.92                    6.8962
826.19                    6.9418
826.45                    6.9034
826.72                    6.8429
826.98                    6.7986
827.25                    6.7764
827.51                    6.9785
827.78                    6.9301
828.04                    6.9234
828.31                    6.7167
828.57                    9.6309
828.84                    9.6893
829.10                    9.6923
829.37                    7.3894
829.63                    8.8530
829.90                    8.8651
830.17                    8.2245
830.43                    6.7200
830.70                    6.6822
830.96                    6.6754
831.23                    6.6530
831.49                    6.7040
831.76                    6.6973
832.02                    6.6683
832.29                    6.6034
832.55                    6.5964
832.82                    6.5896
833.08                    6.5827
833.35                    6.5759
833.62                    6.6003
833.88                    6.6511
834.15                    7.5110
834.41                    7.4884
834.68                    7.5169
834.94                    6.6420
835.21                    6.6347
835.47                    6.5357
835.74                    6.5380
836.00                    6.5171
836.27                    6.5744
836.53                    6.5587
836.80                    6.5522
837.06                    6.5050
837.33                    6.4984
837.60                    6.4928
837.86                    6.4624
838.13                    6.5447
838.39                    6.5405
838.66                    6.5341
838.92                    6.4381
839.19                    6.4306
839.45                    6.4472
839.72                    6.4881
839.98                    6.4793
840.25                    6.4493
840.51                    6.5471
840.78                    6.6014
841.04                    6.5970
841.31                    6.5074
841.58                    6.4519
841.84                    6.4736
842.11                    6.4626
842.37                    6.5081
842.64                    6.5790
842.90                    6.5198
843.17                    6.5359
843.43                    6.4464
843.70                    6.4361
843.96                    6.3466
844.23                    6.3160
844.49                    6.3032
844.76                    6.2937
845.02                    6.3151
845.29                    6.3077
845.56                    6.3015
845.82                    6.2673
846.09                    6.2609
846.35                    6.2546
846.62                    6.2837
846.88                    6.2784
847.15                    6.2721
847.41                    6.2302
847.68                    6.2229
847.94                    6.2166
848.21                    6.2104
848.47                    6.2041
848.74                    6.1978
849.00                    6.2000
849.27                    6.1938
849.54                    6.2475
849.80                    6.2329
850.07                    6.2445
850.33                    6.2053
850.60                    6.2020
850.86                    6.1782
851.13                    6.1930
851.39                    6.1861
851.66                    6.1830
851.92                    6.1625
852.19                    6.1945
852.45                    6.1854
852.72                    6.1452
852.98                    6.0987
853.25                    6.0926
853.52                    6.0865
853.78                    6.0804
854.05                    6.0743
854.31                    6.0682
854.58                    6.4935
854.84                    6.4878
855.11                    6.4821
855.37                    6.0435
855.64                    6.0375
855.90                    6.0314
856.17                    6.0253
856.43                    6.0193
856.70                    6.0133
856.96                    6.0072
857.23                    6.0012
857.50                    5.9952
857.76                    5.9892
858.03                    5.9832
858.29                    5.9772
858.56                    6.1563
858.82                    6.1506
859.09                    6.1449
859.35                    5.9932
859.62                    5.9873
859.88                    5.9814
860.15                    5.9355
860.41                    5.9296
860.68                    5.9237
860.95                    5.9178
861.21                    5.9119
861.48                    5.9060
861.74                    5.9104
862.01                    6.3134
862.27                    6.3083
862.54                    7.1587
862.80                    6.7439
863.07                    6.9781
863.33                    6.1037
863.60                    6.0982
863.86                    5.8530
864.13                    5.8472
864.39                    6.1538
864.66                    6.2370
864.93                    6.2316
865.19                    6.2401
865.46                    6.1458
865.72                    6.1403
865.99                    5.8066
866.25                    6.5757
866.52                    6.5708
866.78                    7.5497
867.05                    6.7685
867.31                    7.4799
867.58                    6.5011
867.84                    6.7490
868.11                    6.0259
868.37                    6.0087
868.64                    5.7495
868.91                    5.8419
869.17                    5.8364
869.44                    5.8309
869.70                    5.7328
869.97                    5.7271
870.23                    5.7214
870.50                    5.7119
870.76                    5.7063
871.03                    5.7007
871.29                    5.6928
871.56                    5.6872
871.82                    5.6816
872.09                    5.6760
872.35                    5.6705
872.62                    5.6650
872.89                    5.6595
873.15                    5.6539
873.42                    5.6484
873.68                    5.6429
873.95                    5.6374
874.21                    5.6997
874.48                    5.6943
874.74                    5.7353
875.01                    5.6657
875.27                    5.6604
875.54                    5.7095
875.80                    6.2201
876.07                    6.2430
876.33                    7.8292
876.60                    7.3985
876.87                    7.3654
877.13                    5.6668
877.40                    5.5688
877.66                    5.5636
877.93                    5.5581
878.19                    5.5548
878.46                    5.5800
878.72                    5.5747
878.99                    5.5649
879.25                    5.5288
879.52                    5.5234
879.78                    5.5181
880.05                    5.5127
880.31                    5.5076
880.58                    5.5023
880.85                    5.4971
881.11                    5.4918
881.38                    5.4865
881.64                    5.4813
881.91                    5.4761
882.17                    5.5023
882.44                   18.4020
882.70                   18.4250
882.97                   18.4226
883.23                    5.4674
883.50                    5.4857
883.76                    5.4686
884.03                    5.4635
884.29                    5.4294
884.56                    5.4243
884.83                    5.4634
885.09                    5.4586
885.36                    5.4534
885.62                    5.4038
885.89                    5.3983
886.15                    5.3932
886.42                    5.4984
886.68                    5.4935
886.95                    5.4886
887.21                    5.3730
887.48                    5.3680
887.74                    5.3629
888.01                    5.3579
888.27                    7.9257
888.54                    7.9255
888.81                    7.9254
889.07                    5.3380
889.34                    5.3331
889.60                    5.3281
889.87                    5.3232
890.13                    5.3212
890.40                    5.3162
890.66                    5.3113
890.93                    5.3035
891.19                    5.2986
891.46                    5.2938
891.72                    5.8063
891.99                    5.8024
892.26                    5.7986
892.52                    5.2743
892.79                    5.2695
893.05                    5.2646
893.32                    5.2596
893.58                    5.2546
893.85                    5.2499
894.11                    6.3929
894.38                    6.3904
894.64                    6.3881
894.91                    5.2539
895.17                    5.2492
895.44                    5.2445
895.70                    5.2302
895.97                    5.2255
896.24                    5.2208
896.50                    5.2026
896.77                    5.1979
897.03                    5.1933
897.30                    5.2337
897.56                    5.2360
897.83                    5.3628
898.09                    5.3205
898.36                    5.3098
898.62                    5.1888
898.89                    5.1769
899.15                    5.1719
899.42                    5.1519
899.68                    5.1473
899.95                    5.1910
900.22                    5.2109
900.48                    5.2066
900.75                    5.1533
901.01                    5.1832
901.28                    5.1844
901.54                    5.1802
901.81                    5.1204
902.07                    5.1106
902.34                    5.1063
902.60                    5.1839
902.87                    5.1799
903.13                    5.1962
903.40                    5.1241
903.66                    5.2130
903.93                    5.1886
904.20                    5.2946
904.46                    5.2061
904.73                    6.1574
904.99                    6.0552
905.26                    6.0866
905.52                    5.1198
905.79                    5.0886
906.05                    5.0437
906.32                    5.0396
906.58                    5.0354
906.85                    5.0313
907.11                    5.0272
907.38                    5.0231
907.64                    5.0190
907.91                    5.0150
908.18                    5.1107
908.44                    5.1068
908.71                    5.1564
908.97                    5.5873
909.24                    5.6101
909.50                    5.5545
909.77                    5.0317
910.03                    5.2952
910.30                    5.2927
910.56                    5.2689
910.83                    4.9704
911.09                    4.9911
911.36                    5.0002
911.62                    4.9965
911.89                    4.9678
912.16                    5.0103
912.42                    5.1797
912.69                    5.1769
912.95                    5.1139
913.22                    4.9818
913.48                    4.9782
913.75                    4.9922
914.01                    5.0126
914.28                    5.0140
914.54                    5.0402
914.81                    4.9687
915.07                    5.0362
915.34                    4.9851
915.60                    5.0525
915.87                    8.3748
916.14                    8.5543
916.40                    8.4960
916.67                    5.0549
916.93                    4.9241
917.20                    4.9193
917.46                    4.9373
917.73                    4.9848
917.99                    5.0159
918.26                    5.1161
918.52                    5.2593
918.79                    5.3116
919.05                    5.1919
919.32                    4.9937
919.59                    5.0649
919.85                    5.1330
920.00                    3.1782
920.50                    3.2047
921.00                    3.1981
921.50                    3.1822
922.00                    3.1836
922.50                    3.2041
923.00                    3.2018
923.50                    3.1826
924.00                    3.1657
924.50                    3.1568
925.00                    3.1536
925.50                    3.1648
926.00                    3.1674
926.50                    3.1671
927.00                    3.1744
927.50                    3.1405
928.00                    3.0764
928.50                    3.0528
929.00                    3.0489
929.50                    3.0048
930.00                    3.0237
930.50                    4.4609
931.00                    7.2740
931.50                    8.2236
932.00                    5.9619
932.50                    6.4542
933.00                    4.7831
933.50                    3.2254
934.00                    3.3143
934.50                    2.6214
935.00                    2.4109
935.50                    2.4099
936.00                    2.3062
936.50                    2.4532
937.00                    3.2870
937.50                    6.8517
938.00                    9.3415
938.50                    6.8438
939.00                    5.4904
939.50                    4.4183
940.00                    3.6010
940.50                    4.0321
941.00                    3.3512
941.50                    3.2576
942.00                    4.2708
942.50                    4.2804
943.00                    2.9056
943.50                    4.1569
944.00                    6.3912
944.50                    5.3544
945.00                    3.9006
945.50                    3.6208
946.00                    4.3359
946.50                    3.6489
947.00                    3.0309
947.50                    5.9893
948.00                    8.8340
948.50                    5.1222
949.00                    2.7915
949.50                    2.6282
950.00                    3.2251
950.50                    4.1675
951.00                    3.8113
951.50                    4.4713
952.00                    6.1710
952.50                    5.4206
953.00                    3.4414
953.50                    2.7828
954.00                    2.7463
954.50                    2.6474
955.00                    3.2635
955.50                    3.8506
956.00                    3.2801
956.50                    4.0210
957.00                    5.1233
957.50                    4.1816
958.00                    2.8300
958.50                    2.7241
959.00                    2.6574
959.50                    2.6358
960.00                    2.7610
960.50                    3.1082
961.00                    3.4282
961.50                    3.3216
962.00                    3.5872
962.50                    3.8679
963.00                    3.3401
963.50                    2.8836
964.00                    2.7945
964.50                    2.7813
965.00                    2.8595
965.50                    3.0343
966.00                    3.1271
966.50                    3.3728
967.00                    3.8697
967.50                    3.8573
968.00                    4.5495
968.50                    5.3818
969.00                    4.6758
969.50                    5.0704
970.00                    6.6331
970.50                    5.6742
971.00                    4.5520
971.50                    5.8947
972.00                    7.5693
972.50                    6.7768
973.00                    4.2148
973.50                    3.8236
974.00                    4.7259
974.50                    3.9786
975.00                    3.0922
975.50                    2.9401
976.00                    2.8811
976.50                    2.9031
977.00                    2.9512
977.50                    2.9681
978.00                    2.9422
978.50                    4.4136
979.00                   12.1606
979.50                   18.1350
980.00                   13.1736
980.50                    6.7000
981.00                    5.0119
981.50                    4.6090
982.00                    3.7573
982.50                    3.2047
983.00                    3.3814
983.50                    3.2007
984.00                    3.0038
984.50                    4.3141
985.00                    5.9522
985.50                    4.7936
986.00                    3.2148
986.50                    3.1224
987.00                    8.1663
987.50                   13.2910
988.00                    8.0238
988.50                    3.0481
989.00                    3.9497
989.50                    5.8934
990.00                    5.8248
990.50                    3.8817
991.00                    5.8082
991.50                   11.2773
992.00                   10.8446
992.50                    5.3975
993.00                    2.9554
993.50                    3.0631
994.00                    5.8648
994.50                   12.6234
995.00                   14.2854
995.50                   10.7633
996.00                   12.9412
996.50                   12.8893
997.00                    7.0977
997.50                    4.5973
998.00                    3.7996
998.50                    2.9937
999.00                    2.9395
999.50                    3.2500
1000.00                   4.0090
1000.50                   4.2018
1001.00                  10.0516
1001.50                  17.2652
1002.00                  11.7916
1002.50                   6.7944
1003.00                   6.8062
1003.50                   4.4966
1004.00                   3.7627
1004.50                   4.5638
1005.00                   3.8977
1005.50                   3.5043
1006.00                   4.8262
1006.50                   5.7714
1007.00                   5.1245
1007.50                   4.2431
1008.00                   7.0008
1008.50                  10.4514
1009.00                   6.7361
1009.50                   3.1271
1010.00                   4.3178
1010.50                   5.8209
1011.00                   4.7237
1011.50                   3.1785
1012.00                   6.1150
1012.50                  10.8358
1013.00                   8.9062
1013.50                   4.4902
1014.00                   3.1234
1014.50                   3.3033
1015.00                   5.0019
1015.50                   7.2648
1016.00                   7.0408
1016.50                   5.4900
1017.00                  10.5541
1017.50                  16.3382
1018.00                  10.7738
1018.50                   8.5877
1019.00                  13.2449
1019.50                  12.0749
1020.00                   8.1353
1020.50                   9.4418
1021.00                  15.7105
1021.50                  18.4008
1022.00                   9.8448
1022.50                   5.9682
1023.00                   9.9851
1023.50                   9.3469
1024.00                   4.8915
1024.50                   2.8401
1025.00                   2.8392
1025.50                   2.8372
1026.00                   2.8376
1026.50                   2.9037
1027.00                   3.3825
1027.50                   3.7491
1028.00                   5.3974
1028.50                  27.4290
1029.00                  48.3068
1029.50                  32.3474
1030.00                  16.7671
1030.50                  10.2884
1031.00                   6.7991
1031.50                   6.2834
1032.00                   3.9001
1032.50                   3.6004
1033.00                   4.1718
1033.50                   3.5290
1034.00                   3.1749
1034.50                   7.4297
1035.00                  12.0097
1035.50                   7.9772
1036.00                   3.4849
1036.50                   2.9528
1037.00                  15.8691
1037.50                  30.7878
1038.00                  18.0563
1038.50                   3.8846
1039.00                   3.1261
1039.50                   8.4097
1040.00                  13.3186
1040.50                   7.7524
1041.00                   2.8256
1041.50                  15.3710
1042.00                  31.1161
1042.50                  20.3436
1043.00                   5.3773
1043.50                   2.9226
1044.00                   2.7971
1044.50                   3.7974
1045.00                   7.9187
1045.50                  10.0469
1046.00                   5.7882
1046.50                   9.5626
1047.00                  19.8609
1047.50                  15.8513
1048.00                   5.7994
1048.50                   2.7529
1049.00                   2.7504
1049.50                   2.7619
1050.00                   2.7800
1050.50                   4.1899
1051.00                   6.4888
1051.50                   5.8240
1052.00                   5.6939
1052.50                   9.7565
1053.00                  10.2091
1053.50                   5.3104
1054.00                   2.7327
1054.50                   2.7310
1055.00                   2.7292
1055.50                   2.7274
1056.00                   2.7256
1056.50                   2.7304
1057.00                   3.5632
1057.50                   4.4777
1058.00                   3.9216
1058.50                   4.7888
1059.00                   5.9621
1059.50                   4.1514
1060.00                   2.7244
1060.50                   2.7207
1061.00                   2.7115
1061.50                   2.7056
1062.00                   2.7036
1062.50                   2.7014
1063.00                   2.6994
1063.50                   2.7456
1064.00                   3.0106
1064.50                   3.1955
1065.00                   3.3761
1065.50                   3.6515
1066.00                   3.1827
1066.50                   2.7076
1067.00                   2.6842
1067.50                   2.6809
1068.00                   2.7972
1068.50                   3.5593
1069.00                   4.5135
1069.50                   6.0125
1070.00                   7.7615
1070.50                   7.3347
1071.00                   9.9137
1071.50                  12.9712
1072.00                   9.8548
1072.50                  13.9541
1073.00                  21.4980
1073.50                  14.9486
1074.00                   8.5226
1074.50                  11.5340
1075.00                  20.0709
1075.50                  25.1790
1076.00                  12.5728
1076.50                   2.7264
1077.00                   6.7055
1077.50                  10.8766
1078.00                   6.8111
1078.50                   2.7667
1079.00                   2.6523
1079.50                   2.6613
1080.00                   2.6607
1080.50                   2.6620
1081.00                   2.6430
1081.50                   2.6250
1082.00                   2.6272
1082.50                   6.7205
1083.00                  39.1501
1083.50                  65.4825
1084.00                  43.5472
1084.50                  25.0510
1085.00                  13.5363
1085.50                   7.1707
1086.00                  10.0564
1086.50                   6.0355
1087.00                   2.8590
1087.50                   3.9983
1088.00                   4.8055
1088.50                   3.5759
1089.00                   3.7000
1089.50                  10.1195
1090.00                  14.8100
1090.50                   8.2456
1091.00                   2.8084
1091.50                   2.5956
1092.00                  19.4508
1092.50                  40.9108
1093.00                  28.0136
1093.50                   6.9027
1094.00                   2.6164
1094.50                   9.0740
1095.00                  17.3780
1095.50                  12.1234
1096.00                   3.9903
1096.50                   2.7752
1097.00                  24.6240
1097.50                  48.0752
1098.00                  25.6450
1098.50                   3.4437
1099.00                   2.5256
1099.50                   2.5006
1100.00                   2.9671
