# sky background 0.3-1.0um
# BRIGHT optical sky - 100%ile conditions (day 14)
# AM=2.0
#
#derived from sky spectrum with constant slope to match assumed photometric background
#increasingly poor model at very bright sky (day14);  patched to near-IR background at 920nm
#
#1 March 2001 : Phil Puxley

#nm         phot/s/nm/arcsec^2/m^2
320.00                    0.0000
349.99                    0.0000
350.17                   22.3062
350.43                   22.2966
350.70                   22.2870
350.96                   22.2773
351.23                   22.2677
351.49                   22.2581
351.76                   22.2485
352.02                   22.2388
352.29                   22.2292
352.55                   22.2196
352.82                   22.2100
353.08                   22.2003
353.35                   22.1907
353.62                   22.1811
353.88                   22.1715
354.15                   22.1619
354.41                   22.1522
354.68                   22.1426
354.94                   22.1330
355.21                   22.1234
355.47                   22.1137
355.74                   22.1041
356.00                   22.0945
356.27                   22.0849
356.53                   22.0752
356.80                   22.0656
357.07                   22.0560
357.33                   22.0464
357.60                   22.0367
357.86                   22.0271
358.13                   22.0175
358.39                   22.0079
358.66                   21.9982
358.92                   21.9886
359.19                   21.9790
359.45                   21.9694
359.72                   21.9597
359.98                   21.9501
360.25                   21.9405
360.51                   21.9309
360.78                   21.9212
361.05                   21.9116
361.31                   21.9020
361.58                   21.8924
361.84                   21.8827
362.11                   21.8731
362.37                   21.8635
362.64                   21.8539
362.90                   21.8442
363.17                   21.8346
363.43                   21.8250
363.70                   21.8154
363.96                   21.8057
364.23                   21.7961
364.49                   21.7865
364.76                   21.7769
365.03                   21.7672
365.29                   21.7576
365.56                   21.7480
365.82                   21.7384
366.09                   21.7287
366.35                   21.7191
366.62                   21.7095
366.88                   21.6999
367.15                   21.6902
367.41                   21.6806
367.68                   21.6710
367.94                   21.6614
368.21                   21.6518
368.47                   21.6421
368.74                   21.6325
369.01                   21.6229
369.27                   21.6133
369.54                   21.6036
369.80                   21.5940
370.07                   21.5844
370.33                   21.5748
370.60                   21.5651
370.86                   21.5555
371.13                   21.5459
371.39                   21.5363
371.66                   21.5266
371.92                   21.5170
372.19                   21.5074
372.45                   21.4978
372.72                   21.4881
372.99                   21.4785
373.25                   21.4689
373.52                   21.4593
373.78                   21.4496
374.05                   21.4400
374.31                   21.4304
374.58                   21.4208
374.84                   21.4111
375.11                   21.4015
375.37                   21.3919
375.64                   21.3823
375.90                   21.3726
376.17                   21.3630
376.43                   21.3534
376.70                   21.3438
376.97                   21.3341
377.23                   21.3245
377.50                   21.3149
377.76                   21.3053
378.03                   21.2956
378.29                   21.2860
378.56                   21.2764
378.82                   21.2668
379.09                   21.2571
379.35                   21.2475
379.62                   21.2379
379.88                   21.2283
380.15                   21.2186
380.41                   21.2090
380.68                   21.1994
380.95                   21.1898
381.21                   21.1801
381.48                   21.1705
381.74                   21.1609
382.01                   21.1513
382.27                   21.1417
382.54                   21.1320
382.80                   21.1224
383.07                   21.1128
383.33                   21.1032
383.60                   21.0935
383.86                   21.0839
384.13                   21.0743
384.40                   21.0647
384.66                   21.0550
384.93                   21.0454
385.19                   21.0358
385.46                   21.0262
385.72                   21.0166
385.99                   21.0069
386.25                   20.9973
386.52                   20.9877
386.78                   20.9781
387.05                   20.9685
387.31                   20.9589
387.58                   20.9493
387.84                   20.9396
388.11                   20.9300
388.38                   20.9204
388.64                   20.9108
388.91                   20.9012
389.17                   20.8916
389.44                   20.8820
389.70                   20.8724
389.97                   20.8628
390.23                   20.8532
390.50                   20.8437
390.76                   20.8341
391.03                   20.8245
391.29                   20.8149
391.56                   20.8053
391.82                   20.7958
392.09                   20.7862
392.36                   20.7766
392.62                   20.7670
392.89                   20.7574
393.15                   20.7479
393.42                   20.7383
393.68                   20.7287
393.95                   20.7191
394.21                   20.7095
394.48                   20.7000
394.74                   20.6904
395.01                   20.6808
395.27                   20.6712
395.54                   20.6616
395.80                   20.6520
396.07                   20.6425
396.34                   20.6329
396.60                   20.6233
396.87                   20.6137
397.13                   20.6041
397.40                   20.5945
397.66                   20.5849
397.93                   20.5754
398.19                   20.5658
398.46                   20.5562
398.72                   20.5466
398.99                   20.5370
399.25                   20.5274
399.52                   20.5178
399.78                   20.5082
400.05                   20.4986
400.32                   20.4891
400.58                   20.4795
400.85                   20.4699
401.11                   20.4603
401.38                   20.4507
401.64                   20.4411
401.91                   20.4315
402.17                   20.4219
402.44                   20.4123
402.70                   20.4027
402.97                   20.3931
403.23                   20.3835
403.50                   20.3739
403.76                   20.3643
404.03                   20.3548
404.30                   20.3452
404.56                   20.3356
404.83                   20.3260
405.09                   20.3164
405.36                   20.3068
405.62                   20.2972
405.89                   20.2876
406.15                   20.2781
406.42                   20.2685
406.68                   20.2589
406.95                   20.2493
407.21                   20.2397
407.48                   20.2302
407.74                   20.2206
408.01                   20.2110
408.28                   20.2014
408.54                   20.1919
408.81                   20.1823
409.07                   20.1727
409.34                   20.1632
409.60                   20.1536
409.87                   20.1440
410.13                   20.1345
410.40                   20.1249
410.66                   20.1154
410.93                   20.1058
411.19                   20.0963
411.46                   20.0867
411.73                   20.0772
411.99                   20.0677
412.26                   20.0581
412.52                   20.0486
412.79                   20.0390
413.05                   20.0295
413.32                   20.0199
413.58                   20.0104
413.85                   20.0008
414.11                   19.9913
414.38                   19.9817
414.64                   19.9722
414.91                   19.9626
415.17                   19.9531
415.44                   19.9435
415.71                   19.9340
415.97                   19.9244
416.24                   19.9149
416.50                   19.9053
416.77                   19.8958
417.03                   19.8862
417.30                   19.8766
417.56                   19.8671
417.83                   19.8575
418.09                   19.8479
418.36                   19.8384
418.62                   19.8288
418.89                   19.8192
419.15                   19.8097
419.42                   19.8001
419.69                   19.7905
419.95                   19.7810
420.22                   19.7714
420.48                   19.7618
420.75                   19.7522
421.01                   19.7426
421.28                   19.7330
421.54                   19.7234
421.81                   19.7138
422.07                   19.7042
422.34                   19.6946
422.60                   19.6850
422.87                   19.6755
423.13                   19.6659
423.40                   19.6563
423.67                   19.6467
423.93                   19.6371
424.20                   19.6275
424.46                   19.6179
424.73                   19.6083
424.99                   19.5987
425.26                   19.5892
425.52                   19.5796
425.79                   19.5700
426.05                   19.5604
426.32                   19.5508
426.58                   19.5412
426.85                   19.5316
427.11                   19.5220
427.38                   19.5125
427.65                   19.5029
427.91                   19.4933
428.18                   19.4837
428.44                   19.4741
428.71                   19.4646
428.97                   19.4550
429.24                   19.4454
429.50                   19.4358
429.77                   19.4262
430.03                   19.4167
430.30                   19.4071
430.56                   19.3975
430.83                   19.3880
431.09                   19.3784
431.36                   19.3688
431.63                   19.3593
431.89                   19.3497
432.16                   19.3401
432.42                   19.3306
432.69                   19.3210
432.95                   19.3114
433.22                   19.3019
433.48                   19.2923
433.75                   19.2827
434.01                   19.2732
434.28                   19.2636
434.54                   19.2540
434.81                   19.2445
435.07                   19.2349
435.34                   19.2254
435.61                   19.2158
435.87                   19.2062
436.14                   19.1967
436.40                   19.1871
436.67                   19.1776
436.93                   19.1680
437.20                   19.1585
437.46                   19.1489
437.73                   19.1394
437.99                   19.1298
438.26                   19.1203
438.52                   19.1107
438.79                   19.1012
439.05                   19.0916
439.32                   19.0821
439.59                   19.0726
439.85                   19.0630
440.12                   19.0535
440.38                   19.0440
440.65                   19.0345
440.91                   19.0250
441.18                   19.0154
441.44                   19.0059
441.71                   18.9964
441.97                   18.9869
442.24                   18.9774
442.50                   18.9679
442.77                   18.9584
443.04                   18.9488
443.30                   18.9393
443.57                   18.9298
443.83                   18.9203
444.10                   18.9108
444.36                   18.9012
444.63                   18.8917
444.89                   18.8822
445.16                   18.8727
445.42                   18.8631
445.69                   18.8536
445.95                   18.8441
446.22                   18.8346
446.48                   18.8250
446.75                   18.8155
447.02                   18.8060
447.28                   18.7965
447.55                   18.7869
447.81                   18.7774
448.08                   18.7679
448.34                   18.7583
448.61                   18.7488
448.87                   18.7393
449.14                   18.7297
449.40                   18.7202
449.67                   18.7106
449.93                   18.7011
450.20                   18.6915
450.46                   18.6820
450.73                   18.6724
451.00                   18.6628
451.26                   18.6533
451.53                   18.6437
451.79                   18.6342
452.06                   18.6246
452.32                   18.6150
452.59                   18.6055
452.85                   18.5959
453.12                   18.5864
453.38                   18.5768
453.65                   18.5672
453.91                   18.5577
454.18                   18.5481
454.44                   18.5386
454.71                   18.5290
454.98                   18.5194
455.24                   18.5099
455.51                   18.5003
455.77                   18.4908
456.04                   18.4812
456.30                   18.4717
456.57                   18.4621
456.83                   18.4525
457.10                   18.4430
457.36                   18.4334
457.63                   18.4239
457.89                   18.4143
458.16                   18.4048
458.42                   18.3952
458.69                   18.3857
458.96                   18.3761
459.22                   18.3666
459.49                   18.3570
459.75                   18.3475
460.02                   18.3379
460.28                   18.3284
460.55                   18.3188
460.81                   18.3093
461.08                   18.2998
461.34                   18.2902
461.61                   18.2807
461.87                   18.2711
462.14                   18.2616
462.40                   18.2521
462.67                   18.2425
462.94                   18.2330
463.20                   18.2234
463.47                   18.2139
463.73                   18.2044
464.00                   18.1949
464.26                   18.1853
464.53                   18.1758
464.79                   18.1662
465.06                   18.1567
465.32                   18.1472
465.59                   18.1377
465.85                   18.1281
466.12                   18.1186
466.38                   18.1091
466.65                   18.0995
466.92                   18.0900
467.18                   18.0805
467.45                   18.0710
467.71                   18.0615
467.98                   18.0519
468.24                   18.0424
468.51                   18.0329
468.77                   18.0234
469.04                   18.0139
469.30                   18.0044
469.57                   17.9949
469.83                   17.9854
470.10                   17.9759
470.37                   17.9664
470.63                   17.9569
470.90                   17.9475
471.16                   17.9380
471.43                   17.9285
471.69                   17.9190
471.96                   17.9096
472.22                   17.9001
472.49                   17.8906
472.75                   17.8811
473.02                   17.8716
473.28                   17.8621
473.55                   17.8527
473.81                   17.8432
474.08                   17.8337
474.35                   17.8242
474.61                   17.8147
474.88                   17.8052
475.14                   17.7957
475.41                   17.7862
475.67                   17.7768
475.94                   17.7673
476.20                   17.7578
476.47                   17.7483
476.73                   17.7388
477.00                   17.7293
477.26                   17.7197
477.53                   17.7102
477.79                   17.7007
478.06                   17.6912
478.33                   17.6817
478.59                   17.6722
478.86                   17.6627
479.12                   17.6531
479.39                   17.6436
479.65                   17.6341
479.92                   17.6245
480.18                   17.6150
480.45                   17.6054
480.71                   17.5959
480.98                   17.5863
481.24                   17.5767
481.51                   17.5672
481.77                   17.5576
482.04                   17.5480
482.31                   17.5384
482.57                   17.5289
482.84                   17.5193
483.10                   17.5097
483.37                   17.5002
483.63                   17.4906
483.90                   17.4811
484.16                   17.4715
484.43                   17.4619
484.69                   17.4524
484.96                   17.4428
485.22                   17.4332
485.49                   17.4237
485.75                   17.4141
486.02                   17.4045
486.29                   17.3950
486.55                   17.3854
486.82                   17.3759
487.08                   17.3663
487.35                   17.3568
487.61                   17.3472
487.88                   17.3376
488.14                   17.3281
488.41                   17.3185
488.67                   17.3090
488.94                   17.2994
489.20                   17.2899
489.47                   17.2803
489.73                   17.2708
490.00                   17.2612
490.27                   17.2517
490.53                   17.2422
490.80                   17.2326
491.06                   17.2231
491.33                   17.2136
491.59                   17.2040
491.86                   17.1945
492.12                   17.1850
492.39                   17.1754
492.65                   17.1659
492.92                   17.1564
493.18                   17.1468
493.45                   17.1373
493.71                   17.1278
493.98                   17.1182
494.25                   17.1087
494.51                   17.0992
494.78                   17.0897
495.04                   17.0801
495.31                   17.0706
495.57                   17.0611
495.84                   17.0515
496.10                   17.0420
496.37                   17.0325
496.63                   17.0229
496.90                   17.0134
497.16                   17.0039
497.43                   16.9944
497.70                   16.9848
497.96                   16.9753
498.23                   16.9658
498.49                   16.9562
498.76                   16.9467
499.02                   16.9372
499.29                   16.9277
499.55                   16.9181
499.82                   16.9086
500.08                   16.8991
500.35                   16.8896
500.61                   16.8801
500.88                   16.8706
501.14                   16.8610
501.41                   16.8515
501.68                   16.8420
501.94                   16.8325
502.21                   16.8230
502.47                   16.8135
502.74                   16.8039
503.00                   16.7944
503.27                   16.7849
503.53                   16.7754
503.80                   16.7659
504.06                   16.7564
504.33                   16.7469
504.59                   16.7373
504.86                   16.7278
505.12                   16.7183
505.39                   16.7088
505.66                   16.6993
505.92                   16.6898
506.19                   16.6803
506.45                   16.6707
506.72                   16.6612
506.98                   16.6517
507.25                   16.6422
507.51                   16.6327
507.78                   16.6232
508.04                   16.6137
508.31                   16.6041
508.57                   16.5946
508.84                   16.5851
509.10                   16.5756
509.37                   16.5661
509.64                   16.5566
509.90                   16.5471
510.17                   16.5376
510.43                   16.5281
510.70                   16.5186
510.96                   16.5096
511.23                   16.4972
511.49                   16.4916
511.76                   16.4841
512.02                   16.4740
512.29                   16.4538
512.55                   16.4317
512.82                   16.4225
513.08                   16.4251
513.35                   16.4229
513.62                   16.4098
513.88                   16.3928
514.15                   16.3853
514.41                   16.3769
514.68                   16.3698
514.94                   16.3562
515.21                   16.3446
515.47                   16.3295
515.74                   16.3174
516.00                   16.3096
516.27                   16.2932
516.53                   16.2778
516.80                   16.2640
517.06                   16.2685
517.33                   16.2652
517.60                   16.2650
517.86                   16.2430
518.13                   16.2392
518.39                   16.2308
518.66                   16.2382
518.92                   16.2230
519.19                   16.2248
519.45                   16.3227
519.72                   16.4412
519.98                   16.4687
520.25                   16.3604
520.51                   16.2268
520.78                   16.1686
521.04                   16.1423
521.31                   16.1305
521.58                   16.1230
521.84                   16.1204
522.11                   16.1232
522.37                   16.1005
522.64                   16.0784
522.90                   16.0598
523.17                   16.0575
523.43                   16.0543
523.70                   16.0500
523.96                   16.0425
524.23                   16.0301
524.49                   16.0151
524.76                   16.0005
525.03                   15.9994
525.29                   15.9941
525.56                   15.9897
525.82                   15.9672
526.09                   15.9423
526.35                   15.9232
526.62                   15.9140
526.88                   15.9148
527.15                   15.9225
527.41                   15.9274
527.68                   15.9220
527.94                   15.9177
528.21                   15.8952
528.47                   15.8726
528.74                   15.8476
529.01                   15.8444
529.27                   15.8440
529.54                   15.8422
529.80                   15.8346
530.07                   15.8256
530.33                   15.8113
530.60                   15.8010
530.86                   15.8077
531.13                   15.8008
531.39                   15.7900
531.66                   15.7623
531.92                   15.7492
532.19                   15.7368
532.45                   15.7360
532.72                   15.7429
532.99                   15.7542
533.25                   15.7359
533.52                   15.7087
533.78                   15.6803
534.05                   15.6713
534.31                   15.6675
534.58                   15.6613
534.84                   15.6481
535.11                   15.6317
535.37                   15.6211
535.64                   15.6192
535.90                   15.6150
536.17                   15.6042
536.43                   15.5894
536.70                   15.5781
536.97                   15.5665
537.23                   15.5653
537.50                   15.5525
537.76                   15.5373
538.03                   15.5136
538.29                   15.5017
538.56                   15.4953
538.82                   15.4984
539.09                   15.4857
539.35                   15.4752
539.62                   15.4590
539.88                   15.4531
540.15                   15.4463
540.41                   15.4353
540.68                   15.4346
540.95                   15.4200
541.21                   15.4193
541.48                   15.3992
541.74                   15.3965
542.01                   15.3745
542.27                   15.3628
542.54                   15.3515
542.80                   15.3475
543.07                   15.3491
543.33                   15.3483
543.60                   15.3386
543.86                   15.3305
544.13                   15.3053
544.39                   15.3011
544.66                   15.2871
544.93                   15.2905
545.19                   15.2799
545.46                   15.2688
545.72                   15.2569
545.99                   15.2516
546.25                   15.2482
546.52                   15.2419
546.78                   15.2260
547.05                   15.2008
547.31                   15.1779
547.58                   15.1694
547.84                   15.1688
548.11                   15.1595
548.37                   15.1560
548.64                   15.1522
548.91                   15.1607
549.17                   15.1475
549.44                   15.1455
549.70                   15.1323
549.97                   15.1263
550.23                   15.1111
550.50                   15.1025
550.76                   15.0927
551.03                   15.0810
551.29                   15.0680
551.56                   15.0571
551.82                   15.0463
552.09                   15.0301
552.36                   15.0096
552.62                   14.9959
552.89                   14.9905
553.15                   15.0005
553.42                   14.9952
553.68                   14.9954
553.95                   14.9903
554.21                   15.0019
554.48                   14.9970
554.74                   14.9814
555.01                   14.9598
555.27                   14.9434
555.54                   14.9276
555.80                   14.9223
556.07                   14.9262
556.34                   14.9279
556.60                   14.9194
556.87                   14.9224
557.13                   16.8760
557.40                   19.6040
557.66                   21.4916
557.93                   19.9769
558.19                   17.2285
558.46                   15.2983
558.72                   14.8360
558.99                   14.8206
559.25                   14.8064
559.52                   14.7859
559.78                   14.7765
560.05                   14.7841
560.32                   14.7848
560.58                   14.7809
560.85                   14.7481
561.11                   14.7126
561.38                   14.7031
561.64                   14.7137
561.91                   14.7372
562.17                   14.7391
562.44                   14.7259
562.70                   14.6910
562.97                   14.6587
563.23                   14.6336
563.50                   14.6308
563.76                   14.6298
564.03                   14.6254
564.30                   14.6251
564.56                   14.6274
564.83                   14.6160
565.09                   14.5896
565.36                   14.5603
565.62                   14.5504
565.89                   14.5478
566.15                   14.5484
566.42                   14.5520
566.68                   14.5520
566.95                   14.5369
567.21                   14.5207
567.48                   14.5064
567.74                   14.5054
568.01                   14.4850
568.28                   14.4698
568.54                   14.4452
568.81                   14.4471
569.07                   14.4522
569.34                   14.4586
569.60                   14.4612
569.87                   14.4402
570.13                   14.4297
570.40                   14.4027
570.66                   14.3972
570.93                   14.3772
571.19                   14.3700
571.46                   14.3641
571.72                   14.3718
571.99                   14.3711
572.26                   14.3649
572.52                   14.3422
572.79                   14.3310
573.05                   14.3169
573.32                   14.3089
573.58                   14.2953
573.85                   14.2803
574.11                   14.2776
574.38                   14.2714
574.64                   14.2650
574.91                   14.2422
575.17                   14.2275
575.44                   14.2125
575.70                   14.2139
575.97                   14.1955
576.24                   14.1878
576.50                   14.1780
576.77                   14.1799
577.03                   14.1724
577.30                   14.1586
577.56                   14.1445
577.83                   14.1352
578.09                   14.1227
578.36                   14.1136
578.62                   14.0946
578.89                   14.0837
579.15                   14.0763
579.42                   14.0691
579.68                   14.0672
579.95                   14.0608
580.22                   14.0664
580.48                   14.0579
580.75                   14.0414
581.01                   14.0204
581.28                   14.0119
581.54                   14.0092
581.81                   14.0171
582.07                   14.0189
582.34                   14.0129
582.60                   13.9888
582.87                   13.9781
583.13                   13.9679
583.40                   13.9584
583.67                   13.9475
583.93                   13.9527
584.20                   14.0292
584.46                   14.0115
584.73                   13.9911
584.99                   13.8977
585.26                   13.8958
585.52                   13.8761
585.79                   13.8739
586.05                   13.9006
586.32                   13.9724
586.58                   14.0072
586.85                   13.9893
587.11                   13.9227
587.38                   13.8922
587.65                   13.8663
587.91                   13.8556
588.18                   13.8591
588.44                   14.3273
588.71                   14.8411
588.97                   15.2530
589.24                   15.0614
589.50                   14.7067
589.77                   14.2888
590.03                   13.9975
590.30                   13.8271
590.56                   13.7978
590.83                   13.7998
591.09                   13.8233
591.36                   13.8366
591.63                   13.8202
591.89                   13.7840
592.16                   13.7509
592.42                   13.7317
592.69                   13.7383
592.95                   13.7699
593.22                   13.8021
593.48                   13.7521
593.75                   13.6752
594.01                   13.6181
594.28                   13.6282
594.54                   13.6349
594.81                   13.6612
595.07                   13.6819
595.34                   13.6748
595.61                   13.6249
595.87                   13.5611
596.14                   13.5333
596.40                   13.5237
596.67                   13.5397
596.93                   13.5554
597.20                   13.5703
597.46                   13.5804
597.73                   13.5637
597.99                   13.5249
598.26                   13.4747
598.52                   13.4554
598.79                   13.4592
599.05                   13.4458
599.32                   13.4271
599.59                   13.4130
599.85                   13.4107
600.12                   13.4174
600.38                   13.3994
600.65                   13.3817
600.91                   13.3495
601.18                   13.3291
601.44                   13.3082
601.71                   13.2925
601.97                   13.2767
602.24                   13.2652
602.50                   13.2657
602.77                   13.2679
603.03                   13.2631
603.30                   13.2478
603.57                   13.2308
603.83                   13.2176
604.10                   13.2073
604.36                   13.1975
604.63                   13.1819
604.89                   13.1613
605.16                   13.1398
605.42                   13.1229
605.69                   13.1145
605.95                   13.1115
606.22                   13.1128
606.48                   13.1081
606.75                   13.0901
607.01                   13.0783
607.28                   13.0615
607.55                   13.0610
607.81                   13.0417
608.08                   13.0353
608.34                   13.0197
608.61                   13.0111
608.87                   13.0022
609.14                   12.9929
609.40                   12.9931
609.67                   12.9863
609.93                   12.9787
610.20                   12.9648
610.46                   12.9582
610.73                   12.9469
611.00                   12.9353
611.26                   12.9130
611.53                   12.9024
611.79                   12.8815
612.06                   12.8689
612.32                   12.8627
612.59                   12.8579
612.85                   12.8506
613.12                   12.8310
613.38                   12.8484
613.65                   12.8652
613.91                   12.8815
614.18                   12.8575
614.44                   12.8386
614.71                   12.8063
614.98                   12.7919
615.24                   12.8053
615.51                   12.8371
615.77                   12.8313
616.04                   12.7815
616.30                   12.7477
616.57                   12.7597
616.83                   12.7824
617.10                   13.0748
617.36                   13.0551
617.63                   13.0239
617.89                   12.6947
618.16                   12.6651
618.42                   12.6426
618.69                   12.6300
618.96                   12.6181
619.22                   12.6157
619.49                   12.6075
619.75                   12.6243
620.02                   12.6420
620.28                   12.6451
620.55                   12.6136
620.81                   12.5828
621.08                   12.5721
621.34                   12.5716
621.61                   12.5868
621.87                   12.6052
622.14                   12.5951
622.40                   12.5520
622.67                   12.5196
622.94                   12.5688
623.20                   12.7174
623.47                   12.8359
623.73                   12.8558
624.00                   12.7447
624.26                   12.6331
624.53                   12.5296
624.79                   12.4734
625.06                   12.4732
625.32                   12.5626
625.59                   12.6669
625.85                   12.6915
626.12                   12.6282
626.38                   12.5464
626.65                   12.4936
626.92                   12.4534
627.18                   12.4196
627.45                   12.4055
627.71                   12.4022
627.98                   12.4059
628.24                   12.4432
628.51                   12.5150
628.77                   12.5365
629.04                   12.5213
629.30                   13.6367
629.57                   19.2367
629.83                   24.6168
630.10                   27.4037
630.36                   21.8340
630.63                   16.4683
630.90                   12.4392
631.16                   12.3161
631.43                   12.2262
631.69                   12.2557
631.96                   12.3075
632.22                   12.3077
632.49                   12.3558
632.75                   12.3785
633.02                   12.4210
633.28                   12.3126
633.55                   12.1960
633.81                   12.1079
634.08                   12.0933
634.34                   12.1226
634.61                   12.1356
634.88                   12.1543
635.14                   12.1834
635.41                   12.2441
635.67                   12.7978
635.94                   14.3906
636.20                   16.0717
636.47                   16.6198
636.73                   14.9477
637.00                   13.1461
637.26                   11.9971
637.53                   11.9982
637.79                   12.0071
638.06                   12.0119
638.33                   12.0175
638.59                   12.0098
638.86                   11.9782
639.12                   11.9293
639.39                   11.8952
639.65                   11.8748
639.92                   11.8728
640.18                   11.8605
640.45                   11.8609
640.71                   11.8447
640.98                   11.8390
641.24                   11.8264
641.51                   11.8277
641.77                   11.8340
642.04                   11.8363
642.31                   11.8191
642.57                   11.7896
642.84                   11.7672
643.10                   11.7541
643.37                   11.7365
643.63                   11.7137
643.90                   11.6990
644.16                   11.6938
644.43                   11.6953
644.69                   11.6965
644.96                   11.7040
645.22                   11.7231
645.49                   11.7235
645.75                   11.7209
646.02                   11.7706
646.29                   11.8505
646.55                   11.9211
646.82                   11.9006
647.08                   11.8153
647.35                   11.7318
647.61                   11.6557
647.88                   11.6338
648.14                   11.6062
648.41                   11.5950
648.67                   11.5680
648.94                   11.5486
649.20                   11.5399
649.47                   11.5360
649.73                   11.5351
650.00                   11.5296
650.27                   11.5470
650.53                   11.5310
650.80                   11.5101
651.06                   11.4719
651.33                   11.4687
651.59                   11.4549
651.86                   11.4407
652.12                   11.4349
652.39                   11.4337
652.65                   11.4268
652.92                   11.4174
653.18                   11.4066
653.45                   11.4039
653.71                   11.3987
653.98                   11.3982
654.25                   11.3910
654.51                   11.3703
654.78                   11.3651
655.04                   11.4122
655.31                   11.4123
655.57                   11.4029
655.84                   11.3364
656.10                   11.3183
656.37                   11.2916
656.63                   11.3491
656.90                   11.3497
657.16                   11.3474
657.43                   11.3004
657.69                   11.2810
657.96                   11.2714
658.23                   11.2286
658.49                   11.2255
658.76                   11.2106
659.02                   11.1986
659.29                   11.1887
659.55                   11.1797
659.82                   11.1707
660.08                   11.1628
660.35                   11.1539
660.61                   11.1467
660.88                   11.1313
661.14                   11.1351
661.41                   11.1243
661.67                   11.1168
661.94                   11.0951
662.21                   11.0878
662.47                   11.0974
662.74                   11.1080
663.00                   11.0976
663.27                   11.0723
663.53                   11.0529
663.80                   11.0437
664.06                   11.0308
664.33                   11.0127
664.59                   11.0053
664.86                   10.9967
665.12                   10.9904
665.39                   10.9846
665.66                   10.9781
665.92                   10.9667
666.19                   10.9530
666.45                   10.9480
666.72                   10.9388
666.98                   10.9298
667.25                   10.9140
667.51                   10.9050
667.78                   10.8980
668.04                   10.8890
668.31                   10.8800
668.57                   10.8691
668.84                   10.8601
669.10                   10.8511
669.37                   10.8423
669.64                   10.8430
669.90                   10.8366
670.17                   10.8275
670.43                   10.8234
670.70                   10.8318
670.96                   10.8508
671.23                   10.8370
671.49                   10.8230
671.76                   10.8014
672.02                   10.7856
672.29                   10.7728
672.55                   10.7525
672.82                   10.7404
673.08                   10.7201
673.35                   10.7382
673.62                   10.7292
673.88                   10.7202
674.15                   10.6815
674.41                   10.6739
674.68                   10.6659
674.94                   10.6570
675.21                   10.6468
675.47                   10.6398
675.74                   10.6296
676.00                   10.6238
676.27                   10.6138
676.53                   10.6045
676.80                   10.6043
677.06                   10.6112
677.33                   10.6024
677.60                   10.5830
677.86                   10.5561
678.13                   10.5469
678.39                   10.5361
678.66                   10.5272
678.92                   10.5388
679.19                   10.5300
679.45                   10.5249
679.72                   10.5145
679.98                   10.5054
680.25                   10.4923
680.51                   10.4640
680.78                   10.4550
681.04                   10.4460
681.31                   10.4370
681.58                   10.4280
681.84                   10.4190
682.11                   10.4101
682.37                   10.4011
682.64                   10.4113
682.90                   10.4074
683.17                   10.7386
683.43                   10.7106
683.70                   10.6967
683.96                   10.3618
684.23                   10.3528
684.49                   10.3438
684.76                   10.3201
685.02                   10.3111
685.29                   10.3021
685.56                   10.2931
685.82                   10.2841
686.09                   10.7772
686.35                   10.7687
686.62                   10.7602
686.88                   10.2587
687.15                   10.2497
687.41                   10.2407
687.68                   10.2210
687.94                   10.2300
688.21                   10.2210
688.47                   10.2131
688.74                   10.1860
689.00                   10.1801
689.27                   10.1701
689.54                   10.1640
689.80                   10.4107
690.07                   10.4022
690.33                   10.3960
690.60                   10.1271
690.86                   10.1181
691.13                   10.1038
691.39                   10.0948
691.66                   10.0980
691.92                   10.0890
692.19                   10.0800
692.45                   10.0587
692.72                   10.0496
692.99                   10.0406
693.25                   10.0400
693.52                   10.0401
693.78                   10.0444
694.05                   10.0285
694.31                   10.0118
694.58                    9.9894
694.84                    9.9928
695.11                    9.9888
695.37                    9.9991
695.64                   10.0051
695.90                   10.0058
696.17                    9.9823
696.43                    9.9472
696.70                    9.9850
696.97                    9.9812
697.23                    9.9801
697.50                    9.9120
697.76                    9.8938
698.03                    9.8739
698.29                    9.8605
698.56                    9.8584
698.82                    9.8517
699.09                    9.8426
699.35                    9.8337
699.62                    9.8265
699.88                    9.8301
700.15                    9.8165
700.41                    9.8032
700.68                    9.7814
700.95                    9.7689
701.21                    9.7598
701.48                    9.7507
701.74                    9.7416
702.01                    9.7325
702.27                    9.7233
702.54                    9.7146
702.80                    9.7088
703.07                    9.7012
703.33                    9.6917
703.60                    9.6836
703.86                    9.7154
704.13                    9.7213
704.39                    9.7082
704.66                    9.6581
704.93                    9.6460
705.19                    9.6366
705.46                    9.6260
705.72                    9.6176
705.99                    9.6211
706.25                    9.6120
706.52                    9.5934
706.78                    9.5961
707.05                    9.6072
707.31                    9.5949
707.58                    9.5711
707.84                    9.5507
708.11                    9.5416
708.37                    9.5229
708.64                    9.5052
708.91                    9.4964
709.17                    9.4873
709.44                    9.4846
709.70                    9.4768
709.97                    9.4677
710.23                    9.4518
710.50                    9.4700
710.76                    9.4714
711.03                    9.4625
711.29                    9.4245
711.56                    9.4049
711.82                    9.3957
712.09                    9.3866
712.35                    9.3775
712.62                    9.3684
712.89                    9.3650
713.15                    9.3559
713.42                    9.3468
713.68                    9.3423
713.95                    9.3332
714.21                    9.3242
714.48                    9.3048
714.74                    9.2957
715.01                    9.2867
715.27                    9.2807
715.54                    9.2805
715.80                    9.2714
716.07                    9.2593
716.33                    9.2458
716.60                    9.2368
716.87                    9.2277
717.13                    9.2141
717.40                    9.2050
717.66                    9.1995
717.93                    9.1904
718.19                    9.1814
718.46                    9.1688
718.72                    9.1597
718.99                    9.1507
719.25                    9.1416
719.52                    9.1326
719.78                    9.1235
720.05                    9.1145
720.32                    9.1055
720.58                    9.0965
720.85                    9.0875
721.11                    9.0785
721.38                    9.0695
721.64                    9.0605
721.91                    9.0515
722.17                    9.0447
722.44                    9.0357
722.70                    9.0290
722.97                    9.0178
723.23                    9.0088
723.50                    8.9975
723.76                    9.1032
724.03                    9.0945
724.30                    9.1823
724.56                    9.0706
724.83                    9.0646
725.09                    8.9587
725.36                    8.9415
725.62                    8.9297
725.89                    8.9207
726.15                    8.9076
726.42                    8.8986
726.68                    8.8977
726.95                    8.8888
727.21                    8.9737
727.48                    8.9567
727.74                    8.9479
728.01                    8.8446
728.28                    8.8420
728.54                    8.8330
728.81                    8.8264
729.07                    8.8129
729.34                    8.9840
729.60                    8.9730
729.87                    8.9625
730.13                    8.8004
730.40                    8.7920
730.66                    8.7831
730.93                    8.7733
731.19                    8.7638
731.46                    8.7825
731.72                    8.7799
731.99                    8.7711
732.26                    8.7343
732.52                    8.6918
732.79                    8.6865
733.05                    8.6775
733.32                    8.6685
733.58                    8.6558
733.85                   10.3887
734.11                   10.3961
734.38                   10.3899
734.64                    8.6388
734.91                    8.6172
735.17                    8.6082
735.44                    8.6087
735.70                    8.5987
735.97                    8.5954
736.24                    8.5716
736.50                    8.5686
736.77                    8.5540
737.03                    8.5648
737.30                    8.5524
737.56                    8.5618
737.83                    8.5372
738.09                    8.5482
738.36                    8.5211
738.62                    8.5085
738.89                    8.4772
739.15                    8.4680
739.42                    8.4585
739.68                    8.4537
739.95                    8.4524
740.22                    8.4437
740.48                    8.4308
740.75                    8.4236
741.01                    8.4514
741.28                    8.4442
741.54                    8.4566
741.81                    8.4104
742.07                    8.4079
742.34                    8.3676
742.60                    8.3821
742.87                    8.3640
743.13                    8.3631
743.40                    8.3304
743.66                    8.3377
743.93                    8.3256
744.20                    8.3191
744.46                    8.2938
744.73                    8.2847
744.99                    8.2867
745.26                    8.2777
745.52                    8.2654
745.79                    8.2566
746.05                    8.2497
746.32                    8.2523
746.58                    8.2410
746.85                    8.4201
747.11                    8.4409
747.38                    8.4211
747.64                    8.3217
747.91                    8.2842
748.18                    8.2963
748.44                    8.1896
748.71                    8.1733
748.97                    8.1425
749.24                    8.1344
749.50                    8.1331
749.77                    8.1427
750.03                    8.1467
750.30                    8.1244
750.56                    8.1142
750.83                    8.1753
751.09                    8.1689
751.36                    8.1960
751.63                    8.1063
751.89                    8.0976
752.16                    8.4160
752.42                    8.4069
752.69                    8.4053
752.95                    8.0423
753.22                    8.0499
753.48                    8.0390
753.75                    8.0574
754.01                    8.0440
754.28                    8.0289
754.54                    7.9651
754.81                    7.9642
755.07                    7.9932
755.34                    7.9926
755.61                    7.9599
755.87                    7.9167
756.14                    7.9179
756.40                    7.9216
756.67                    7.9083
756.93                    8.5316
757.20                    8.5957
757.46                    8.5856
757.73                    7.9284
757.99                    7.8394
758.26                    7.8384
758.52                    7.8255
758.79                    7.8101
759.05                    7.7980
759.32                    7.7891
759.59                    7.9761
759.85                    7.9627
760.12                    7.9538
760.38                    7.7490
760.65                    7.7402
760.91                    7.7314
761.18                    7.7307
761.44                    7.7219
761.71                    7.7246
761.97                    7.7265
762.24                    7.7177
762.50                    7.6991
762.77                    7.6714
763.03                    7.6700
763.30                    7.6595
763.57                    7.6523
763.83                    7.6360
764.10                    7.6273
764.36                    7.6457
764.63                    7.6370
764.89                    7.6282
765.16                    7.5906
765.42                    7.5819
765.69                    7.5731
765.95                    7.7654
766.22                    7.7568
766.48                    7.7482
766.75                    7.5380
767.01                    7.5333
767.28                    7.5246
767.55                    7.5158
767.81                    7.5058
768.08                    7.4970
768.34                    7.4893
768.61                    7.4778
768.87                    7.4934
769.14                    7.4837
769.40                    7.4749
769.67                    7.4777
769.93                    7.4743
770.20                    7.4655
770.46                    7.4512
770.73                    7.4571
770.99                    9.2291
771.26                    9.5587
771.53                    9.9106
771.79                    8.1570
772.06                    7.7981
772.32                    7.7752
772.59                    7.7306
772.85                    7.7107
773.12                    7.3609
773.38                    7.3522
773.65                    7.3363
773.91                    7.3065
774.18                    7.2979
774.44                    7.2927
774.71                    7.2980
774.97                    7.3089
775.24                    7.2967
775.51                    7.2699
775.77                    7.2696
776.04                    7.2609
776.30                    7.2534
776.57                    7.2168
776.83                    7.2081
777.10                    7.2626
777.36                    7.2539
777.63                    7.2453
777.89                    7.1724
778.16                    7.1683
778.42                    7.1895
778.69                    7.1919
778.96                    7.2197
779.22                    7.1846
779.49                    7.1650
779.75                    7.1153
780.02                    7.1200
780.28                    7.1113
780.55                    7.4709
780.81                    7.4453
781.08                    7.4365
781.34                    7.0810
781.61                    7.1213
781.87                   10.9699
782.14                   10.9382
782.40                   10.8784
782.67                    7.0238
782.94                    7.0151
783.20                    7.0065
783.47                    6.9920
783.73                    6.9834
784.00                    6.9748
784.26                    6.9654
784.53                    6.9568
784.79                    6.9539
785.06                    9.7879
785.32                    9.7777
785.59                    9.7618
785.85                    6.9140
786.12                    6.9054
786.38                    6.8968
786.65                    6.8882
786.92                    6.8796
787.18                    6.8711
787.45                    6.8625
787.71                    6.8540
787.98                    6.8454
788.24                    6.8369
788.51                    6.8371
788.77                    6.9171
789.04                    6.9086
789.30                    6.8915
789.57                    6.7943
789.83                    6.7858
790.10                    6.7773
790.36                    6.7689
790.63                    6.7604
790.90                    6.7537
791.16                    6.7453
791.43                    6.7368
791.69                    6.7589
791.96                    6.7504
792.22                    6.7419
792.49                    6.7010
792.75                    6.7176
793.02                    6.7092
793.28                    6.7007
793.55                    6.6672
793.81                    6.6588
794.08                    6.6510
794.34                    6.6796
794.61                    6.6967
794.88                    6.6876
795.14                    6.6473
795.41                    6.6133
795.67                    6.6049
795.94                    6.5913
796.20                    9.2400
796.47                    9.2323
796.73                    9.2247
797.00                    6.5578
797.26                    6.5540
797.53                    6.5457
797.79                    6.5373
798.06                    6.5243
798.32                    6.5160
798.59                    6.5076
798.86                    6.5083
799.12                    6.5255
799.39                    6.5172
799.65                    6.4999
799.92                    6.4672
800.18                    6.4636
800.45                    6.4554
800.71                    6.4457
800.98                    6.4328
801.24                    6.4932
801.51                    6.4850
801.77                    6.5891
802.04                    6.5210
802.30                    8.0400
802.57                    8.0227
802.84                    8.0088
803.10                    6.4724
803.37                    6.3644
803.63                    6.3640
803.90                    6.3509
804.16                    6.3415
804.43                    6.3254
804.69                    6.3562
804.96                    6.5690
805.22                    6.5740
805.49                    6.5473
805.75                    6.3518
806.02                    6.3308
806.29                    6.3144
806.55                    6.3009
806.82                    6.3246
807.08                    6.3045
807.35                    6.2916
807.61                    6.2830
807.88                    6.3156
808.14                    6.3754
808.41                    6.3374
808.67                    6.2886
808.94                    6.1878
809.20                    6.1812
809.47                    6.1880
809.73                    6.1801
810.00                    6.5009
810.27                    6.4778
810.53                    6.5071
810.80                    6.1718
811.06                    6.1792
811.33                    6.1402
811.59                    6.1405
811.86                    6.1394
812.12                    6.1271
812.39                    6.1531
812.65                    6.1299
812.92                    6.1454
813.18                    6.0955
813.45                    6.0885
813.71                    6.0821
813.98                    6.0833
814.25                    6.0761
814.51                    6.1011
814.78                    6.2847
815.04                    6.2732
815.31                    6.2316
815.57                    6.0470
815.84                    6.0331
816.10                    6.0008
816.37                    6.0680
816.63                    6.1077
816.90                    6.1317
817.16                    6.0222
817.43                    5.9683
817.69                    5.9427
817.96                    5.9374
818.23                    5.9303
818.49                    6.0233
818.76                    6.0415
819.02                    6.0633
819.29                    6.0355
819.55                    5.9935
819.82                    5.9526
820.08                    5.8462
820.35                    5.8380
820.61                    5.8491
820.88                    5.8618
821.14                    5.8635
821.41                    5.8389
821.67                    5.8169
821.94                    5.8261
822.21                    5.8212
822.47                    5.8181
822.74                    5.8094
823.00                    5.7968
823.27                    5.7983
823.53                    5.7650
823.80                    5.7553
824.06                    5.7244
824.33                    5.7630
824.59                    5.7573
824.86                    5.7742
825.12                    5.7178
825.39                    5.7334
825.65                    5.7470
825.92                    5.7925
826.19                    5.8371
826.45                    5.7976
826.72                    5.7361
826.98                    5.6906
827.25                    5.6674
827.51                    5.8684
827.78                    5.8190
828.04                    5.8112
828.31                    5.6035
828.57                    8.5166
828.84                    8.5739
829.10                    8.5759
829.37                    6.2719
829.63                    7.7344
829.90                    7.7455
830.17                    7.1039
830.43                    5.5983
830.70                    5.5595
830.96                    5.5516
831.23                    5.5281
831.49                    5.5780
831.76                    5.5703
832.02                    5.5402
832.29                    5.4742
832.55                    5.4662
832.82                    5.4583
833.08                    5.4504
833.35                    5.4425
833.62                    5.4659
833.88                    5.5156
834.15                    6.3744
834.41                    6.3508
834.68                    6.3782
834.94                    5.5022
835.21                    5.4938
835.47                    5.3938
835.74                    5.3951
836.00                    5.3731
836.27                    5.4293
836.53                    5.4126
836.80                    5.4050
837.06                    5.3568
837.33                    5.3491
837.60                    5.3424
837.86                    5.3109
838.13                    5.3922
838.39                    5.3869
838.66                    5.3794
838.92                    5.2824
839.19                    5.2738
839.45                    5.2894
839.72                    5.3292
839.98                    5.3193
840.25                    5.2883
840.51                    5.3850
840.78                    5.4383
841.04                    5.4328
841.31                    5.3421
841.58                    5.2856
841.84                    5.3063
842.11                    5.2942
842.37                    5.3386
842.64                    5.4085
842.90                    5.3482
843.17                    5.3633
843.43                    5.2727
843.70                    5.2613
843.96                    5.1708
844.23                    5.1391
844.49                    5.1253
844.76                    5.1146
845.02                    5.1350
845.29                    5.1266
845.56                    5.1192
845.82                    5.0840
846.09                    5.0766
846.35                    5.0692
846.62                    5.0972
846.88                    5.0909
847.15                    5.0835
847.41                    5.0405
847.68                    5.0322
847.94                    5.0249
848.21                    5.0176
848.47                    5.0102
848.74                    5.0029
849.00                    5.0040
849.27                    4.9967
849.54                    5.0493
849.80                    5.0337
850.07                    5.0442
850.33                    5.0040
850.60                    4.9996
850.86                    4.9747
851.13                    4.9885
851.39                    4.9805
851.66                    4.9764
851.92                    4.9548
852.19                    4.9858
852.45                    4.9756
852.72                    4.9343
852.98                    4.8868
853.25                    4.8796
853.52                    4.8724
853.78                    4.8652
854.05                    4.8581
854.31                    4.8509
854.58                    5.2752
854.84                    5.2684
855.11                    5.2616
855.37                    4.8220
855.64                    4.8149
855.90                    4.8078
856.17                    4.8007
856.43                    4.7936
856.70                    4.7865
856.96                    4.7794
857.23                    4.7723
857.50                    4.7652
857.76                    4.7582
858.03                    4.7511
858.29                    4.7441
858.56                    4.9221
858.82                    4.9153
859.09                    4.9086
859.35                    4.7558
859.62                    4.7488
859.88                    4.7418
860.15                    4.6949
860.41                    4.6880
860.68                    4.6810
860.95                    4.6740
861.21                    4.6670
861.48                    4.6601
861.74                    4.6634
862.01                    5.0654
862.27                    5.0592
862.54                    5.9085
862.80                    5.4926
863.07                    5.7258
863.33                    4.8503
863.60                    4.8438
863.86                    4.5975
864.13                    4.5906
864.39                    4.8962
864.66                    4.9784
864.93                    4.9719
865.19                    4.9794
865.46                    4.8839
865.72                    4.8774
865.99                    4.5426
866.25                    5.3107
866.52                    5.3048
866.78                    6.2826
867.05                    5.5003
867.31                    6.2107
867.58                    5.2308
867.84                    5.4777
868.11                    4.7535
868.37                    4.7352
868.64                    4.4749
868.91                    4.5663
869.17                    4.5597
869.44                    4.5532
869.70                    4.4540
869.97                    4.4473
870.23                    4.4404
870.50                    4.4299
870.76                    4.4232
871.03                    4.4165
871.29                    4.4076
871.56                    4.4010
871.82                    4.3943
872.09                    4.3877
872.35                    4.3811
872.62                    4.3745
872.89                    4.3679
873.15                    4.3613
873.42                    4.3548
873.68                    4.3482
873.95                    4.3416
874.21                    4.4028
874.48                    4.3964
874.74                    4.4364
875.01                    4.3657
875.27                    4.3593
875.54                    4.4074
875.80                    4.9169
876.07                    4.9388
876.33                    6.5238
876.60                    6.0921
876.87                    6.0579
877.13                    4.3582
877.40                    4.2593
877.66                    4.2530
877.93                    4.2464
878.19                    4.2421
878.46                    4.2662
878.72                    4.2598
878.99                    4.2490
879.25                    4.2117
879.52                    4.2054
879.78                    4.1990
880.05                    4.1925
880.31                    4.1863
880.58                    4.1800
880.85                    4.1737
881.11                    4.1674
881.38                    4.1610
881.64                    4.1547
881.91                    4.1485
882.17                    4.1736
882.44                   17.0722
882.70                   17.0942
882.97                   17.0907
883.23                    4.1345
883.50                    4.1518
883.76                    4.1335
884.03                    4.1274
884.29                    4.0922
884.56                    4.0860
884.83                    4.1241
885.09                    4.1182
885.36                    4.1119
885.62                    4.0613
885.89                    4.0547
886.15                    4.0486
886.42                    4.1527
886.68                    4.1468
886.95                    4.1408
887.21                    4.0241
887.48                    4.0180
887.74                    4.0120
888.01                    4.0058
888.27                    6.5726
888.54                    6.5714
888.81                    6.5702
889.07                    3.9817
889.34                    3.9757
889.60                    3.9697
889.87                    3.9637
890.13                    3.9606
890.40                    3.9546
890.66                    3.9487
890.93                    3.9398
891.19                    3.9339
891.46                    3.9279
891.72                    4.4394
891.99                    4.4345
892.26                    4.4295
892.52                    3.9043
892.79                    3.8984
893.05                    3.8923
893.32                    3.8863
893.58                    3.8803
893.85                    3.8745
894.11                    5.0164
894.38                    5.0129
894.64                    5.0095
894.91                    3.8742
895.17                    3.8685
895.44                    3.8628
895.70                    3.8473
895.97                    3.8416
896.24                    3.8359
896.50                    3.8166
896.77                    3.8109
897.03                    3.8051
897.30                    3.8445
897.56                    3.8457
897.83                    3.9715
898.09                    3.9282
898.36                    3.9164
898.62                    3.7943
898.89                    3.7813
899.15                    3.7753
899.42                    3.7542
899.68                    3.7486
899.95                    3.7912
900.22                    3.8100
900.48                    3.8047
900.75                    3.7503
901.01                    3.7792
901.28                    3.7793
901.54                    3.7741
901.81                    3.7131
902.07                    3.7023
902.34                    3.6970
902.60                    3.7735
902.87                    3.7685
903.13                    3.7837
903.40                    3.7105
903.66                    3.7983
903.93                    3.7729
904.20                    3.8778
904.46                    3.7882
904.73                    4.7385
904.99                    4.6352
905.26                    4.6656
905.52                    3.6977
905.79                    3.6655
906.05                    3.6195
906.32                    3.6143
906.58                    3.6091
906.85                    3.6039
907.11                    3.5988
907.38                    3.5936
907.64                    3.5885
907.91                    3.5834
908.18                    3.6780
908.44                    3.6731
908.71                    3.7215
908.97                    4.1515
909.24                    4.1731
909.50                    4.1165
909.77                    3.5927
910.03                    3.8551
910.30                    3.8515
910.56                    3.8267
910.83                    3.5271
911.09                    3.5468
911.36                    3.5548
911.62                    3.5500
911.89                    3.5203
912.16                    3.5617
912.42                    3.7300
912.69                    3.7261
912.95                    3.6621
913.22                    3.5290
913.48                    3.5243
913.75                    3.5372
914.01                    3.5565
914.28                    3.5569
914.54                    3.5820
914.81                    3.5094
915.07                    3.5759
915.34                    3.5238
915.60                    3.5901
915.87                    6.9113
916.14                    7.0898
916.40                    7.0304
916.67                    3.5883
916.93                    3.4563
917.20                    3.4505
917.46                    3.4674
917.73                    3.5139
917.99                    3.5440
918.26                    3.6431
918.52                    3.7852
918.79                    3.8364
919.05                    3.7157
919.32                    3.5165
919.59                    3.5866
919.85                    3.6536
920.00                    3.1782
920.50                    3.2047
921.00                    3.1983
921.50                    3.1841
922.00                    3.1883
922.50                    3.2101
923.00                    3.2061
923.50                    3.1839
924.00                    3.1657
924.50                    3.1568
925.00                    3.1536
925.50                    3.1648
926.00                    3.1674
926.50                    3.1671
927.00                    3.1744
927.50                    3.1405
928.00                    3.0765
928.50                    3.0532
929.00                    3.0498
929.50                    3.0059
930.00                    3.0544
930.50                    4.9400
931.00                    8.5605
931.50                    9.9495
932.00                    6.8479
932.50                    7.5531
933.00                    5.4233
933.50                    3.4296
934.00                    3.5763
934.50                    2.7234
935.00                    2.4193
935.50                    2.4109
936.00                    2.3064
936.50                    2.4533
937.00                    3.5253
937.50                    8.0742
938.00                   11.2624
938.50                    8.0550
939.00                    6.2922
939.50                    4.8971
940.00                    3.8145
940.50                    4.3889
941.00                    3.5149
941.50                    3.3990
942.00                    4.7174
942.50                    4.7783
943.00                    3.0164
943.50                    4.6493
944.00                    7.5096
944.50                    6.0975
945.00                    4.2823
945.50                    3.9048
946.00                    4.8520
946.50                    3.9514
947.00                    3.1277
947.50                    6.9658
948.00                   10.6846
948.50                    5.8001
949.00                    2.7964
949.50                    2.6307
950.00                    3.4586
950.50                    4.6299
951.00                    4.1236
951.50                    4.9905
952.00                    7.1626
952.50                    6.2391
953.00                    3.6647
953.50                    2.7828
954.00                    2.7463
954.50                    2.6496
955.00                    3.4441
955.50                    4.1925
956.00                    3.4546
956.50                    4.4326
957.00                    5.8301
957.50                    4.6120
958.00                    2.8389
958.50                    2.7241
959.00                    2.6574
959.50                    2.6358
960.00                    2.7617
960.50                    3.2002
961.00                    3.6061
961.50                    3.4611
962.00                    3.8244
962.50                    4.1937
963.00                    3.4909
963.50                    2.8837
964.00                    2.7945
964.50                    2.7814
965.00                    2.8658
965.50                    3.0701
966.00                    3.2007
966.50                    3.5340
967.00                    4.1846
967.50                    4.1490
968.00                    5.0669
968.50                    6.1462
969.00                    5.2227
969.50                    5.7402
970.00                    7.8222
970.50                    6.5383
971.00                    5.0611
971.50                    6.8472
972.00                    9.0524
972.50                    8.0030
973.00                    4.6230
973.50                    4.1136
974.00                    5.2979
974.50                    4.3236
975.00                    3.1549
975.50                    2.9561
976.00                    2.8811
976.50                    2.9031
977.00                    2.9512
977.50                    2.9681
978.00                    2.9422
978.50                    4.8892
979.00                   15.1683
979.50                   22.9525
980.00                   16.5082
980.50                    7.9035
981.00                    5.6828
981.50                    5.1421
982.00                    4.0142
982.50                    3.2852
983.00                    3.5199
983.50                    3.2758
984.00                    3.0120
984.50                    4.7526
985.00                    6.9263
985.50                    5.3919
986.00                    3.2918
986.50                    3.1692
987.00                    9.8719
987.50                   16.6750
988.00                    9.6859
988.50                    3.0723
989.00                    4.2712
989.50                    6.8559
990.00                    6.7649
990.50                    4.1834
991.00                    6.7444
991.50                   14.0158
992.00                   13.4415
992.50                    6.2011
993.00                    2.9554
993.50                    3.0986
994.00                    6.8237
994.50                   15.8101
995.00                   18.0216
995.50                   13.3385
996.00                   16.2343
996.50                   16.1677
997.00                    8.4666
997.50                    5.1431
998.00                    4.0829
998.50                    3.0120
999.00                    2.9406
999.50                    3.3542
1000.00                   4.3640
1000.50                   4.6209
1001.00                  12.4008
1001.50                  21.9929
1002.00                  14.7082
1002.50                   8.0708
1003.00                   8.0878
1003.50                   5.0170
1004.00                   4.0416
1004.50                   5.1076
1005.00                   4.2224
1005.50                   3.6999
1006.00                   5.4584
1006.50                   6.7158
1007.00                   5.8562
1007.50                   4.6848
1008.00                   8.3519
1008.50                  12.9428
1009.00                   8.0016
1009.50                   3.2044
1010.00                   4.7878
1010.50                   6.7868
1011.00                   5.3282
1011.50                   3.2741
1012.00                   7.1792
1012.50                  13.4592
1013.00                  10.8931
1013.50                   5.0208
1014.00                   3.2037
1014.50                   3.4437
1015.00                   5.7034
1015.50                   8.7128
1016.00                   8.4165
1016.50                   6.3544
1017.00                  13.0896
1017.50                  20.7828
1018.00                  13.3840
1018.50                  10.4769
1019.00                  16.6724
1019.50                  15.1123
1020.00                   9.8777
1020.50                  11.6152
1021.00                  19.9544
1021.50                  23.5318
1022.00                  12.1532
1022.50                   6.9983
1023.00                  12.3404
1023.50                  11.4931
1024.00                   5.5675
1024.50                   2.8401
1025.00                   2.8392
1025.50                   2.8372
1026.00                   2.8384
1026.50                   2.9269
1027.00                   3.5645
1027.50                   4.0526
1028.00                   6.2460
1028.50                  35.5500
1029.00                  63.3237
1029.50                  42.0959
1030.00                  21.3721
1030.50                  12.7551
1031.00                   8.1141
1031.50                   7.4286
1032.00                   4.2590
1032.50                   3.8609
1033.00                   4.6216
1033.50                   3.7671
1034.00                   3.2968
1034.50                   8.9574
1035.00                  15.0508
1035.50                   9.6870
1036.00                   3.7115
1036.50                   3.0044
1037.00                  20.1861
1037.50                  40.0327
1038.00                  23.0982
1038.50                   4.2463
1039.00                   3.2379
1039.50                  10.2672
1040.00                  16.7982
1040.50                   9.3941
1041.00                   2.8405
1041.50                  19.5308
1042.00                  40.4783
1042.50                  26.1477
1043.00                   6.2377
1043.50                   2.9726
1044.00                   2.8063
1044.50                   4.1377
1045.00                   9.6212
1045.50                  12.4532
1046.00                   6.7881
1046.50                  11.8102
1047.00                  25.5117
1047.50                  20.1780
1048.00                   6.8055
1048.50                   2.7529
1049.00                   2.7504
1049.50                   2.7665
1050.00                   2.7912
1050.50                   4.6672
1051.00                   7.7262
1051.50                   6.8422
1052.00                   6.6698
1052.50                  12.0749
1053.00                  12.6781
1053.50                   6.1615
1054.00                   2.7327
1054.50                   2.7310
1055.00                   2.7292
1055.50                   2.7274
1056.00                   2.7256
1056.50                   2.7326
1057.00                   3.8412
1057.50                   5.0586
1058.00                   4.3193
1058.50                   5.4738
1059.00                   7.0354
1059.50                   4.6269
1060.00                   2.7288
1060.50                   2.7245
1061.00                   2.7128
1061.50                   2.7056
1062.00                   2.7036
1062.50                   2.7014
1063.00                   2.6994
1063.50                   2.7616
1064.00                   3.1147
1064.50                   3.3615
1065.00                   3.6024
1065.50                   3.9693
1066.00                   3.3461
1066.50                   2.7147
1067.00                   2.6842
1067.50                   2.6809
1068.00                   2.8364
1068.50                   3.8504
1069.00                   5.1205
1069.50                   7.1146
1070.00                   9.4418
1070.50                   8.8758
1071.00                  12.3075
1071.50                  16.3763
1072.00                  12.2296
1072.50                  17.6805
1073.00                  27.7217
1073.50                  19.0105
1074.00                  10.4615
1074.50                  14.4617
1075.00                  25.8142
1075.50                  32.6260
1076.00                  15.8530
1076.50                   2.7516
1077.00                   8.0479
1077.50                  13.5802
1078.00                   8.1896
1078.50                   2.8077
1079.00                   2.6557
1079.50                   2.6691
1080.00                   2.6711
1080.50                   2.6739
1081.00                   2.6485
1081.50                   2.6250
1082.00                   2.6272
1082.50                   8.0736
1083.00                  51.2318
1083.50                  86.0516
1084.00                  57.0552
1084.50                  32.4450
1085.00                  17.1445
1085.50                   8.6773
1086.00                  12.4876
1086.50                   7.1661
1087.00                   2.9447
1087.50                   4.4587
1088.00                   5.5320
1088.50                   3.8972
1089.00                   4.0641
1089.50                  12.5921
1090.00                  18.8421
1090.50                  10.0911
1091.00                   2.8813
1091.50                   2.5959
1092.00                  25.0261
1092.50                  53.3163
1093.00                  36.3260
1093.50                   8.3290
1094.00                   2.6297
1094.50                  11.2102
1095.00                  22.2038
1095.50                  15.2783
1096.00                   4.4581
1096.50                   2.8480
1097.00                  31.9148
1097.50                  63.0098
1098.00                  33.1161
1098.50                   3.7417
1099.00                   2.5256
1099.50                   2.5006
1100.00                   3.1176
